Elapsed Time,Heart Rate PulseOx1,PPG PulseOx1,SpO2 PulseOx1,BioRadio Event
00:00:00.01,80,76.7418899536133,97,0
00:00:00.01,80,76.7418899536133,97,0
00:00:00.02,80,76.7418899536133,97,0
00:00:00.02,80,76.7418899536133,97,0
00:00:00.02,80,76.6662063598633,97,0
00:00:00.03,80,76.6662063598633,97,0
00:00:00.03,80,76.6662063598633,97,0
00:00:00.04,80,76.5831985473633,97,0
00:00:00.04,80,76.5831985473633,97,0
00:00:00.04,80,76.5831985473633,97,0
00:00:00.05,80,76.5099563598633,97,0
00:00:00.05,80,76.5099563598633,97,0
00:00:00.06,80,76.5099563598633,97,0
00:00:00.06,80,76.5099563598633,97,0
00:00:00.06,80,76.4782180786133,97,0
00:00:00.07,80,76.4782180786133,97,0
00:00:00.07,80,76.4782180786133,97,0
00:00:00.08,80,76.5612258911133,97,0
00:00:00.08,80,76.5612258911133,97,0
00:00:00.08,80,76.5612258911133,97,0
00:00:00.09,80,76.8590850830078,97,0
00:00:00.09,80,76.8590850830078,97,0
00:00:00.10,80,76.8590850830078,97,0
00:00:00.10,80,76.8590850830078,97,0
00:00:00.10,80,77.4572372436523,97,0
00:00:00.11,80,77.4572372436523,97,0
00:00:00.11,80,77.4572372436523,97,0
00:00:00.12,80,78.3825454711914,97,0
00:00:00.12,80,78.3825454711914,97,0
00:00:00.12,80,78.3825454711914,97,0
00:00:00.13,80,79.5788497924805,97,0
00:00:00.13,80,79.5788497924805,97,0
00:00:00.14,80,79.5788497924805,97,0
00:00:00.14,80,79.5788497924805,97,0
00:00:00.14,80,80.9240875244141,97,0
00:00:00.15,80,80.9240875244141,97,0
00:00:00.15,80,80.9240875244141,97,0
00:00:00.16,80,82.2449035644531,97,0
00:00:00.16,80,82.2449035644531,97,0
00:00:00.16,80,82.2449035644531,97,0
00:00:00.17,80,83.3777389526367,97,0
00:00:00.17,80,83.3777389526367,97,0
00:00:00.18,80,83.3777389526367,97,0
00:00:00.18,80,83.3777389526367,97,0
00:00:00.18,80,84.2151489257813,97,0
00:00:00.19,80,84.2151489257813,97,0
00:00:00.19,80,84.2151489257813,97,0
00:00:00.20,80,84.7132034301758,97,0
00:00:00.20,80,84.7132034301758,97,0
00:00:00.20,80,84.7132034301758,97,0
00:00:00.21,80,84.7132034301758,97,0
00:00:00.21,80,84.8841094970703,97,0
00:00:00.22,80,84.8841094970703,97,0
00:00:00.22,80,84.8841094970703,97,0
00:00:00.22,80,84.7644805908203,97,0
00:00:00.23,80,84.7644805908203,97,0
00:00:00.23,80,84.7644805908203,97,0
00:00:00.24,80,84.4226760864258,97,0
00:00:00.24,80,84.4226760864258,97,0
00:00:00.24,80,84.4226760864258,97,0
00:00:00.25,80,84.4226760864258,97,0
00:00:00.25,80,83.9270629882813,97,0
00:00:00.26,80,83.9270629882813,97,0
00:00:00.26,80,83.9270629882813,97,0
00:00:00.26,80,83.3411178588867,97,0
00:00:00.27,80,83.3411178588867,97,0
00:00:00.27,80,83.3411178588867,97,0
00:00:00.28,80,82.7063369750977,97,0
00:00:00.28,80,82.7063369750977,97,0
00:00:00.28,80,82.7063369750977,97,0
00:00:00.29,80,82.7063369750977,97,0
00:00:00.29,80,82.0691223144531,97,0
00:00:00.30,80,82.0691223144531,97,0
00:00:00.30,80,82.0691223144531,97,0
00:00:00.30,80,81.4612045288086,97,0
00:00:00.31,80,81.4612045288086,97,0
00:00:00.31,80,81.4612045288086,97,0
00:00:00.32,81,80.9192047119141,97,0
00:00:00.32,81,80.9192047119141,97,0
00:00:00.32,81,80.9192047119141,97,0
00:00:00.33,81,80.4626541137695,97,0
00:00:00.33,81,80.4626541137695,97,0
00:00:00.34,81,80.4626541137695,97,0
00:00:00.34,81,80.4626541137695,97,0
00:00:00.34,81,80.113525390625,97,0
00:00:00.35,81,80.113525390625,97,0
00:00:00.35,81,80.113525390625,97,0
00:00:00.36,81,79.879150390625,97,0
00:00:00.36,81,79.879150390625,97,0
00:00:00.36,81,79.879150390625,97,0
00:00:00.37,81,79.879150390625,97,0
00:00:00.37,81,79.761962890625,97,0
00:00:00.38,81,79.761962890625,97,0
00:00:00.38,81,79.761962890625,97,0
00:00:00.38,81,79.7424240112305,97,0
00:00:00.39,81,79.7424240112305,97,0
00:00:00.39,81,79.7424240112305,97,0
00:00:00.40,81,79.788818359375,97,0
00:00:00.40,81,79.788818359375,97,0
00:00:00.40,81,79.788818359375,97,0
00:00:00.41,81,79.874267578125,97,0
00:00:00.41,81,79.874267578125,97,0
00:00:00.42,81,79.874267578125,97,0
00:00:00.42,81,79.874267578125,97,0
00:00:00.42,81,79.962158203125,97,0
00:00:00.43,81,79.962158203125,97,0
00:00:00.43,81,79.962158203125,97,0
00:00:00.44,81,80.018310546875,97,0
00:00:00.44,81,80.018310546875,97,0
00:00:00.44,81,80.018310546875,97,0
00:00:00.45,81,80.023193359375,97,0
00:00:00.45,81,80.023193359375,97,0
00:00:00.46,81,80.023193359375,97,0
00:00:00.46,81,80.023193359375,97,0
00:00:00.46,81,79.976806640625,97,0
00:00:00.47,81,79.976806640625,97,0
00:00:00.47,81,79.976806640625,97,0
00:00:00.48,81,79.879150390625,97,0
00:00:00.48,81,79.879150390625,97,0
00:00:00.48,81,79.879150390625,97,0
00:00:00.49,81,79.7375411987305,97,0
00:00:00.49,81,79.7375411987305,97,0
00:00:00.50,81,79.7375411987305,97,0
00:00:00.50,81,79.7375411987305,97,0
00:00:00.50,81,79.5666427612305,97,0
00:00:00.51,81,79.5666427612305,97,0
00:00:00.51,81,79.5666427612305,97,0
00:00:00.52,81,79.3737716674805,97,0
00:00:00.52,81,79.3737716674805,97,0
00:00:00.52,81,79.3737716674805,97,0
00:00:00.53,81,79.1760101318359,97,0
00:00:00.53,81,79.1760101318359,97,0
00:00:00.54,81,79.1760101318359,97,0
00:00:00.54,81,79.1760101318359,97,0
00:00:00.54,81,78.9782562255859,97,0
00:00:00.55,81,78.9782562255859,97,0
00:00:00.55,81,78.9782562255859,97,0
00:00:00.56,81,78.7805023193359,97,0
00:00:00.56,81,78.7805023193359,97,0
00:00:00.56,81,78.7805023193359,97,0
00:00:00.57,81,78.7805023193359,97,0
00:00:00.57,81,78.5900650024414,97,0
00:00:00.58,81,78.5900650024414,97,0
00:00:00.58,81,78.5900650024414,97,0
00:00:00.58,81,78.4069595336914,97,0
00:00:00.59,81,78.4069595336914,97,0
00:00:00.59,81,78.4069595336914,97,0
00:00:00.60,81,78.2287292480469,97,0
00:00:00.60,81,78.2287292480469,97,0
00:00:00.60,81,78.2287292480469,97,0
00:00:00.61,81,78.0627136230469,97,0
00:00:00.61,81,78.0627136230469,97,0
00:00:00.62,81,78.0627136230469,97,0
00:00:00.62,81,78.0627136230469,97,0
00:00:00.62,81,77.9113464355469,97,0
00:00:00.63,81,77.9113464355469,97,0
00:00:00.63,81,77.9113464355469,97,0
00:00:00.64,81,77.7819519042969,97,0
00:00:00.64,81,77.7819519042969,97,0
00:00:00.64,81,77.7819519042969,97,0
00:00:00.65,81,77.6818466186523,97,0
00:00:00.65,81,77.6818466186523,97,0
00:00:00.66,81,77.6818466186523,97,0
00:00:00.66,81,77.6818466186523,97,0
00:00:00.66,81,77.6086044311523,97,0
00:00:00.67,81,77.6086044311523,97,0
00:00:00.67,81,77.6086044311523,97,0
00:00:00.68,81,77.5622177124023,97,0
00:00:00.68,81,77.5622177124023,97,0
00:00:00.68,81,77.5622177124023,97,0
00:00:00.69,81,77.5378036499023,97,0
00:00:00.69,81,77.5378036499023,97,0
00:00:00.70,81,77.5378036499023,97,0
00:00:00.70,81,77.5378036499023,97,0
00:00:00.70,81,77.5353622436523,97,0
00:00:00.71,81,77.5353622436523,97,0
00:00:00.71,81,77.5353622436523,97,0
00:00:00.72,81,77.5329208374023,97,0
00:00:00.72,81,77.5329208374023,97,0
00:00:00.72,81,77.5329208374023,97,0
00:00:00.73,81,77.5231552124023,97,0
00:00:00.73,81,77.5231552124023,97,0
00:00:00.74,81,77.5231552124023,97,0
00:00:00.74,81,77.5231552124023,97,0
00:00:00.74,81,77.4987411499023,97,0
00:00:00.75,81,77.4987411499023,97,0
00:00:00.75,81,77.4987411499023,97,0
00:00:00.76,81,77.4816513061523,97,0
00:00:00.76,81,77.4816513061523,97,0
00:00:00.76,81,77.4816513061523,97,0
00:00:00.77,81,77.5182723999023,97,0
00:00:00.77,81,77.5182723999023,97,0
00:00:00.78,81,77.5182723999023,97,0
00:00:00.78,81,77.5182723999023,97,0
00:00:00.78,81,77.6916122436523,97,0
00:00:00.79,81,77.6916122436523,97,0
00:00:00.79,81,77.6916122436523,97,0
00:00:00.80,81,78.1042175292969,97,0
00:00:00.80,81,78.1042175292969,97,0
00:00:00.80,81,78.1042175292969,97,0
00:00:00.81,81,78.8146820068359,97,0
00:00:00.81,81,78.8146820068359,97,0
00:00:00.82,81,78.8146820068359,97,0
00:00:00.82,81,78.8146820068359,97,0
00:00:00.82,81,79.815673828125,97,0
00:00:00.83,81,79.815673828125,97,0
00:00:00.83,81,79.815673828125,97,0
00:00:00.84,81,81.0339508056641,97,0
00:00:00.84,81,81.0339508056641,97,0
00:00:00.84,81,81.0339508056641,97,0
00:00:00.85,81,82.3230361938477,97,0
00:00:00.85,81,82.3230361938477,97,0
00:00:00.86,81,82.3230361938477,97,0
00:00:00.86,81,82.3230361938477,97,0
00:00:00.86,81,83.5217819213867,97,0
00:00:00.87,81,83.5217819213867,97,0
00:00:00.87,81,83.5217819213867,97,0
00:00:00.88,81,84.4861526489258,97,0
00:00:00.88,81,84.4861526489258,97,0
00:00:00.88,81,84.4861526489258,97,0
00:00:00.89,81,85.1428985595703,97,0
00:00:00.89,81,85.1428985595703,97,0
00:00:00.90,81,85.1428985595703,97,0
00:00:00.90,81,85.1428985595703,97,0
00:00:00.90,81,85.4773788452148,97,0
00:00:00.91,81,85.4773788452148,97,0
00:00:00.91,81,85.4773788452148,97,0
00:00:00.92,81,85.5115585327148,97,0
00:00:00.92,81,85.5115585327148,97,0
00:00:00.92,81,85.5115585327148,97,0
00:00:00.93,81,85.2991561889648,97,0
00:00:00.93,81,85.2991561889648,97,0
00:00:00.94,81,85.2991561889648,97,0
00:00:00.94,81,85.2991561889648,97,0
00:00:00.94,81,84.9011993408203,97,0
00:00:00.95,81,84.9011993408203,97,0
00:00:00.95,81,84.9011993408203,97,0
00:00:00.96,81,84.3738479614258,97,0
00:00:00.96,81,84.3738479614258,97,0
00:00:00.96,81,84.3738479614258,97,0
00:00:00.97,81,83.7610473632813,97,0
00:00:00.97,81,83.7610473632813,97,0
00:00:00.98,81,83.7610473632813,97,0
00:00:00.98,81,83.7610473632813,97,0
00:00:00.98,81,83.1018524169922,97,0
00:00:00.99,81,83.1018524169922,97,0
00:00:00.99,81,83.1018524169922,97,0
00:00:01.00,81,82.4328994750977,97,0
00:00:01,81,82.4328994750977,97,0
00:00:01.00,81,82.4328994750977,97,0
00:00:01.01,81,81.7883605957031,97,0
00:00:01.01,81,81.7883605957031,97,0
00:00:01.02,81,81.7883605957031,97,0
00:00:01.02,81,81.7883605957031,97,0
00:00:01.02,81,81.1999664306641,97,0
00:00:01.03,81,81.1999664306641,97,0
00:00:01.03,81,81.1999664306641,97,0
00:00:01.04,81,80.6970291137695,97,0
00:00:01.04,81,80.6970291137695,97,0
00:00:01.04,81,80.6970291137695,97,0
00:00:01.05,81,80.2990798950195,97,0
00:00:01.05,81,80.2990798950195,97,0
00:00:01.06,81,80.2990798950195,97,0
00:00:01.06,81,80.2990798950195,97,0
00:00:01.06,81,80.013427734375,97,0
00:00:01.07,81,80.013427734375,97,0
00:00:01.07,81,80.013427734375,97,0
00:00:01.08,81,79.840087890625,97,0
00:00:01.08,81,79.840087890625,97,0
00:00:01.08,81,79.840087890625,97,0
00:00:01.09,81,79.761962890625,97,0
00:00:01.09,81,79.761962890625,97,0
00:00:01.10,81,79.761962890625,97,0
00:00:01.10,81,79.761962890625,97,0
00:00:01.10,81,79.7473068237305,97,0
00:00:01.11,81,79.7473068237305,97,0
00:00:01.11,81,79.7473068237305,97,0
00:00:01.12,81,79.759521484375,97,0
00:00:01.12,81,79.759521484375,97,0
00:00:01.12,81,79.759521484375,97,0
00:00:01.13,81,79.764404296875,97,0
00:00:01.13,81,79.764404296875,97,0
00:00:01.14,81,79.764404296875,97,0
00:00:01.14,81,79.764404296875,97,0
00:00:01.14,81,79.7375411987305,97,0
00:00:01.15,81,79.7375411987305,97,0
00:00:01.15,81,79.7375411987305,97,0
00:00:01.16,81,79.6642990112305,97,0
00:00:01.16,81,79.6642990112305,97,0
00:00:01.16,81,79.6642990112305,97,0
00:00:01.17,81,79.5446701049805,97,0
00:00:01.17,81,79.5446701049805,97,0
00:00:01.18,81,79.5446701049805,97,0
00:00:01.18,81,79.5446701049805,97,0
00:00:01.18,81,79.3884201049805,97,0
00:00:01.19,81,79.3884201049805,97,0
00:00:01.19,81,79.3884201049805,97,0
00:00:01.20,81,79.2101898193359,97,0
00:00:01.20,81,79.2101898193359,97,0
00:00:01.20,81,79.2101898193359,97,0
00:00:01.21,81,79.2101898193359,97,0
00:00:01.21,81,79.0173187255859,97,0
00:00:01.22,81,79.0173187255859,97,0
00:00:01.22,81,79.0173187255859,97,0
00:00:01.22,81,78.8146820068359,97,0
00:00:01.23,81,78.8146820068359,97,0
00:00:01.23,81,78.8146820068359,97,0
00:00:01.24,81,78.6095962524414,97,0
00:00:01.24,81,78.6095962524414,97,0
00:00:01.24,81,78.6095962524414,97,0
00:00:01.25,81,78.6095962524414,97,0
00:00:01.25,81,78.4069595336914,97,0
00:00:01.26,81,78.4069595336914,97,0
00:00:01.26,81,78.4069595336914,97,0
00:00:01.26,81,78.2165222167969,97,0
00:00:01.27,81,78.2165222167969,97,0
00:00:01.27,81,78.2165222167969,97,0
00:00:01.28,81,78.0358581542969,97,0
00:00:01.28,81,78.0358581542969,97,0
00:00:01.28,81,78.0358581542969,97,0
00:00:01.29,81,78.0358581542969,97,0
00:00:01.29,81,77.8722839355469,97,0
00:00:01.30,81,77.8722839355469,97,0
00:00:01.30,81,77.8722839355469,97,0
00:00:01.30,81,77.7282333374023,97,0
00:00:01.31,81,77.7282333374023,97,0
00:00:01.31,81,77.7282333374023,97,0
00:00:01.32,81,77.6037216186523,97,0
00:00:01.32,81,77.6037216186523,97,0
00:00:01.32,81,77.6037216186523,97,0
00:00:01.33,81,77.4987411499023,97,0
00:00:01.33,81,77.4987411499023,97,0
00:00:01.34,81,77.4987411499023,97,0
00:00:01.34,81,77.4987411499023,97,0
00:00:01.34,81,77.4035263061523,97,0
00:00:01.35,81,77.4035263061523,97,0
00:00:01.35,81,77.4035263061523,97,0
00:00:01.36,81,77.3131942749023,97,0
00:00:01.36,81,77.3131942749023,97,0
00:00:01.36,81,77.3131942749023,97,0
00:00:01.37,81,77.3131942749023,97,0
00:00:01.37,81,77.2228546142578,97,0
00:00:01.38,81,77.2228546142578,97,0
00:00:01.38,81,77.2228546142578,97,0
00:00:01.38,81,77.1300811767578,97,0
00:00:01.39,81,77.1300811767578,97,0
00:00:01.39,81,77.1300811767578,97,0
00:00:01.40,81,77.0324249267578,97,0
00:00:01.40,81,77.0324249267578,97,0
00:00:01.40,81,77.0324249267578,97,0
00:00:01.41,81,76.9420928955078,97,0
00:00:01.41,81,76.9420928955078,97,0
00:00:01.42,81,76.9420928955078,97,0
00:00:01.42,81,76.9420928955078,97,0
00:00:01.42,81,76.8908233642578,97,0
00:00:01.43,81,76.8908233642578,97,0
00:00:01.43,81,76.8908233642578,97,0
00:00:01.44,81,76.9518585205078,97,0
00:00:01.44,81,76.9518585205078,97,0
00:00:01.44,81,76.9518585205078,97,0
00:00:01.45,81,76.9518585205078,97,0
00:00:01.45,81,77.2155303955078,97,0
00:00:01.46,81,77.2155303955078,97,0
00:00:01.46,81,77.2155303955078,97,0
00:00:01.46,81,77.7599792480469,97,0
00:00:01.47,81,77.7599792480469,97,0
00:00:01.47,81,77.7599792480469,97,0
00:00:01.48,81,78.6193618774414,97,0
00:00:01.48,81,78.6193618774414,97,0
00:00:01.48,81,78.6193618774414,97,0
00:00:01.49,81,79.7497482299805,97,0
00:00:01.49,81,79.7497482299805,97,0
00:00:01.50,81,79.7497482299805,97,0
00:00:01.50,81,79.7497482299805,97,0
00:00:01.50,81,81.0290679931641,97,0
00:00:01.51,81,81.0290679931641,97,0
00:00:01.51,81,81.0290679931641,97,0
00:00:01.52,81,82.2937393188477,97,0
00:00:01.52,81,82.2937393188477,97,0
00:00:01.52,81,82.2937393188477,97,0
00:00:01.53,81,82.2937393188477,97,0
00:00:01.53,81,83.3875045776367,97,0
00:00:01.54,81,83.3875045776367,97,0
00:00:01.54,81,83.3875045776367,97,0
00:00:01.54,81,84.2053833007813,97,0
00:00:01.55,81,84.2053833007813,97,0
00:00:01.55,81,84.2053833007813,97,0
00:00:01.56,81,84.6961135864258,97,0
00:00:01.56,81,84.6961135864258,97,0
00:00:01.56,81,84.6961135864258,97,0
00:00:01.57,81,84.6961135864258,97,0
00:00:01.57,81,84.8670196533203,97,0
00:00:01.58,81,84.8670196533203,97,0
00:00:01.58,81,84.8670196533203,97,0
00:00:01.58,81,84.7547149658203,97,0
00:00:01.59,81,84.7547149658203,97,0
00:00:01.59,81,84.7547149658203,97,0
00:00:01.60,81,84.4153518676758,97,0
00:00:01.60,81,84.4153518676758,97,0
00:00:01.60,81,84.4153518676758,97,0
00:00:01.61,81,84.4153518676758,97,0
00:00:01.61,81,83.9124145507813,97,0
00:00:01.62,81,83.9124145507813,97,0
00:00:01.62,81,83.9124145507813,97,0
00:00:01.62,81,83.3044967651367,97,0
00:00:01.63,81,83.3044967651367,97,0
00:00:01.63,81,83.3044967651367,97,0
00:00:01.64,81,82.6330947875977,97,0
00:00:01.64,81,82.6330947875977,97,0
00:00:01.64,81,82.6330947875977,97,0
00:00:01.65,82,81.9421691894531,97,0
00:00:01.65,82,81.9421691894531,97,0
00:00:01.66,82,81.9421691894531,97,0
00:00:01.66,82,81.9421691894531,97,0
00:00:01.66,82,81.2683334350586,97,0
00:00:01.67,82,81.2683334350586,97,0
00:00:01.67,82,81.2683334350586,97,0
00:00:01.68,82,80.6482009887695,97,0
00:00:01.68,82,80.6482009887695,97,0
00:00:01.68,82,80.6482009887695,97,0
00:00:01.69,82,80.6482009887695,97,0
00:00:01.69,82,80.113525390625,97,0
00:00:01.70,82,80.113525390625,97,0
00:00:01.70,82,80.113525390625,97,0
00:00:01.70,82,79.6960372924805,97,0
00:00:01.71,82,79.6960372924805,97,0
00:00:01.71,82,79.6960372924805,97,0
00:00:01.72,82,79.4128341674805,97,0
00:00:01.72,82,79.4128341674805,97,0
00:00:01.72,82,79.4128341674805,97,0
00:00:01.73,82,79.2590255737305,97,0
00:00:01.73,82,79.2590255737305,97,0
00:00:01.74,82,79.2590255737305,97,0
00:00:01.74,82,79.2590255737305,97,0
00:00:01.74,82,79.2150726318359,97,0
00:00:01.75,82,79.2150726318359,97,0
00:00:01.75,82,79.2150726318359,97,0
00:00:01.76,82,79.2541427612305,97,0
00:00:01.76,82,79.2541427612305,97,0
00:00:01.76,82,79.2541427612305,97,0
00:00:01.77,82,79.2541427612305,97,0
00:00:01.77,82,79.3395919799805,97,0
00:00:01.78,82,79.3395919799805,97,0
00:00:01.78,82,79.3395919799805,97,0
00:00:01.78,82,79.4323654174805,97,0
00:00:01.79,82,79.4323654174805,97,0
00:00:01.79,82,79.4323654174805,97,0
00:00:01.80,82,79.5104904174805,97,0
00:00:01.80,82,79.5104904174805,97,0
00:00:01.80,82,79.5104904174805,97,0
00:00:01.81,82,79.5471115112305,97,0
00:00:01.81,82,79.5471115112305,97,0
00:00:01.82,82,79.5471115112305,97,0
00:00:01.82,82,79.5471115112305,97,0
00:00:01.82,82,79.5349044799805,97,0
00:00:01.83,82,79.5349044799805,97,0
00:00:01.83,82,79.5349044799805,97,0
00:00:01.84,82,79.4665451049805,97,0
00:00:01.84,82,79.4665451049805,97,0
00:00:01.84,82,79.4665451049805,97,0
00:00:01.85,82,79.4665451049805,97,0
00:00:01.85,82,79.3469161987305,97,0
00:00:01.86,82,79.3469161987305,97,0
00:00:01.86,82,79.3469161987305,97,0
00:00:01.86,82,79.1930999755859,97,0
00:00:01.87,82,79.1930999755859,97,0
00:00:01.87,82,79.1930999755859,97,0
00:00:01.88,82,79.0148773193359,97,0
00:00:01.88,82,79.0148773193359,97,0
00:00:01.88,82,79.0148773193359,97,0
00:00:01.89,82,78.8342132568359,97,0
00:00:01.89,82,78.8342132568359,97,0
00:00:01.90,82,78.8342132568359,97,0
00:00:01.90,82,78.8342132568359,97,0
00:00:01.90,82,78.6633071899414,97,0
00:00:01.91,82,78.6633071899414,97,0
00:00:01.91,82,78.6633071899414,97,0
00:00:01.92,82,78.5119400024414,97,0
00:00:01.92,82,78.5119400024414,97,0
00:00:01.92,82,78.5119400024414,97,0
00:00:01.93,82,78.5119400024414,97,0
00:00:01.93,82,78.3801040649414,97,0
00:00:01.94,82,78.3801040649414,97,0
00:00:01.94,82,78.3801040649414,97,0
00:00:01.94,82,78.2653579711914,97,0
00:00:01.95,82,78.2653579711914,97,0
00:00:01.95,82,78.2653579711914,97,0
00:00:01.96,82,78.1579284667969,97,0
00:00:01.96,82,78.1579284667969,97,0
00:00:01.96,82,78.1579284667969,97,0
00:00:01.97,82,78.0553894042969,97,0
00:00:01.97,82,78.0553894042969,97,0
00:00:01.98,82,78.0553894042969,97,0
00:00:01.98,82,78.0553894042969,97,0
00:00:01.98,82,77.9552917480469,97,0
00:00:01.99,82,77.9552917480469,97,0
00:00:01.99,82,77.9552917480469,97,0
00:00:02.00,82,77.8551940917969,97,0
00:00:02,82,77.8551940917969,97,0
00:00:02.00,82,77.8551940917969,97,0
00:00:02.01,82,77.7550964355469,97,0
00:00:02.01,82,77.7550964355469,97,0
00:00:02.02,82,77.7550964355469,97,0
00:00:02.02,82,77.7550964355469,97,0
00:00:02.02,82,77.6549911499023,97,0
00:00:02.03,82,77.6549911499023,97,0
00:00:02.03,82,77.6549911499023,97,0
00:00:02.04,82,77.5548934936523,97,0
00:00:02.04,82,77.5548934936523,97,0
00:00:02.04,82,77.5548934936523,97,0
00:00:02.05,82,77.4523544311523,97,0
00:00:02.05,82,77.4523544311523,97,0
00:00:02.06,82,77.4523544311523,97,0
00:00:02.06,82,77.4523544311523,97,0
00:00:02.06,82,77.3546981811523,97,0
00:00:02.07,82,77.3546981811523,97,0
00:00:02.07,82,77.3546981811523,97,0
00:00:02.08,82,77.2985458374023,97,0
00:00:02.08,82,77.2985458374023,97,0
00:00:02.08,82,77.2985458374023,97,0
00:00:02.09,82,77.3473739624023,97,0
00:00:02.09,82,77.3473739624023,97,0
00:00:02.10,82,77.3473739624023,97,0
00:00:02.10,82,77.3473739624023,97,0
00:00:02.10,82,77.5963973999023,97,0
00:00:02.11,82,77.5963973999023,97,0
00:00:02.11,82,77.5963973999023,97,0
00:00:02.12,82,78.1261901855469,97,0
00:00:02.12,82,78.1261901855469,97,0
00:00:02.12,82,78.1261901855469,97,0
00:00:02.13,82,78.9636077880859,97,0
00:00:02.13,82,78.9636077880859,97,0
00:00:02.14,82,78.9636077880859,97,0
00:00:02.14,82,78.9636077880859,97,0
00:00:02.14,82,80.059814453125,97,0
00:00:02.15,82,80.059814453125,97,0
00:00:02.15,82,80.059814453125,97,0
00:00:02.16,82,81.3073959350586,97,0
00:00:02.16,82,81.3073959350586,97,0
00:00:02.16,82,81.3073959350586,97,0
00:00:02.17,82,82.5452041625977,97,0
00:00:02.17,82,82.5452041625977,97,0
00:00:02.18,82,82.5452041625977,97,0
00:00:02.18,82,82.5452041625977,97,0
00:00:02.18,82,83.6194381713867,97,0
00:00:02.19,82,83.6194381713867,97,0
00:00:02.19,82,83.6194381713867,97,0
00:00:02.20,82,84.4153518676758,97,0
00:00:02.20,82,84.4153518676758,97,0
00:00:02.20,82,84.4153518676758,97,0
00:00:02.21,82,84.4153518676758,97,0
00:00:02.21,82,84.8963165283203,97,0
00:00:02.22,82,84.8963165283203,97,0
00:00:02.22,82,84.8963165283203,97,0
00:00:02.22,82,85.0574493408203,97,0
00:00:02.23,82,85.0574493408203,97,0
00:00:02.23,82,85.0574493408203,97,0
00:00:02.24,82,84.9378204345703,97,0
00:00:02.24,82,84.9378204345703,97,0
00:00:02.24,82,84.9378204345703,97,0
00:00:02.25,82,84.9378204345703,97,0
00:00:02.25,82,84.5935745239258,97,0
00:00:02.26,82,84.5935745239258,97,0
00:00:02.26,82,84.5935745239258,97,0
00:00:02.26,82,84.0930786132813,97,0
00:00:02.27,82,84.0930786132813,97,0
00:00:02.27,82,84.0930786132813,97,0
00:00:02.28,82,83.4827194213867,97,0
00:00:02.28,82,83.4827194213867,97,0
00:00:02.28,82,83.4827194213867,97,0
00:00:02.29,82,83.4827194213867,97,0
00:00:02.29,82,82.8137664794922,97,0
00:00:02.30,82,82.8137664794922,97,0
00:00:02.30,82,82.8137664794922,97,0
00:00:02.30,82,82.1301574707031,97,0
00:00:02.31,82,82.1301574707031,97,0
00:00:02.31,82,82.1301574707031,97,0
00:00:02.32,83,81.4660873413086,97,0
00:00:02.32,83,81.4660873413086,97,0
00:00:02.32,83,81.4660873413086,97,0
00:00:02.33,83,80.8703765869141,97,0
00:00:02.33,83,80.8703765869141,97,0
00:00:02.34,83,80.8703765869141,97,0
00:00:02.34,83,80.8703765869141,97,0
00:00:02.34,83,80.3649978637695,97,0
00:00:02.35,83,80.3649978637695,97,0
00:00:02.35,83,80.3649978637695,97,0
00:00:02.36,83,79.989013671875,97,0
00:00:02.36,83,79.989013671875,97,0
00:00:02.36,83,79.989013671875,97,0
00:00:02.37,83,79.989013671875,97,0
00:00:02.37,83,79.7399826049805,97,0
00:00:02.38,83,79.7399826049805,97,0
00:00:02.38,83,79.7399826049805,97,0
00:00:02.38,83,79.6154708862305,97,0
00:00:02.39,83,79.6154708862305,97,0
00:00:02.39,83,79.6154708862305,97,0
00:00:02.40,83,79.5934982299805,97,0
00:00:02.40,83,79.5934982299805,97,0
00:00:02.40,83,79.5934982299805,97,0
00:00:02.41,83,79.6423263549805,97,0
00:00:02.41,83,79.6423263549805,97,0
00:00:02.42,83,79.6423263549805,97,0
00:00:02.42,83,79.6423263549805,97,0
00:00:02.42,83,79.7204513549805,97,0
00:00:02.43,83,79.7204513549805,97,0
00:00:02.43,83,79.7204513549805,97,0
00:00:02.44,83,79.786376953125,97,0
00:00:02.44,83,79.786376953125,97,0
00:00:02.44,83,79.786376953125,97,0
00:00:02.45,83,79.820556640625,97,0
00:00:02.45,83,79.820556640625,97,0
00:00:02.46,83,79.820556640625,97,0
00:00:02.46,83,79.820556640625,97,0
00:00:02.46,83,79.805908203125,97,0
00:00:02.47,83,79.805908203125,97,0
00:00:02.47,83,79.805908203125,97,0
00:00:02.48,83,79.7424240112305,97,0
00:00:02.48,83,79.7424240112305,97,0
00:00:02.48,83,79.7424240112305,97,0
00:00:02.49,83,79.6301193237305,97,0
00:00:02.49,83,79.6301193237305,97,0
00:00:02.50,83,79.6301193237305,97,0
00:00:02.50,83,79.6301193237305,97,0
00:00:02.50,83,79.4885177612305,97,0
00:00:02.51,83,79.4885177612305,97,0
00:00:02.51,83,79.4885177612305,97,0
00:00:02.52,83,79.3225021362305,97,0
00:00:02.52,83,79.3225021362305,97,0
00:00:02.52,83,79.3225021362305,97,0
00:00:02.53,83,79.1467132568359,97,0
00:00:02.53,83,79.1467132568359,97,0
00:00:02.54,83,79.1467132568359,97,0
00:00:02.54,83,79.1467132568359,97,0
00:00:02.54,83,78.9660491943359,97,0
00:00:02.55,83,78.9660491943359,97,0
00:00:02.55,83,78.9660491943359,97,0
00:00:02.56,83,78.7853851318359,97,0
00:00:02.56,83,78.7853851318359,97,0
00:00:02.56,83,78.7853851318359,97,0
00:00:02.57,83,78.7853851318359,97,0
00:00:02.57,83,78.6095962524414,97,0
00:00:02.58,83,78.6095962524414,97,0
00:00:02.58,83,78.6095962524414,97,0
00:00:02.58,83,78.4411392211914,97,0
00:00:02.59,83,78.4411392211914,97,0
00:00:02.59,83,78.4411392211914,97,0
00:00:02.60,83,78.2848892211914,97,0
00:00:02.60,83,78.2848892211914,97,0
00:00:02.60,83,78.2848892211914,97,0
00:00:02.61,83,78.1432800292969,97,0
00:00:02.61,83,78.1432800292969,97,0
00:00:02.62,83,78.1432800292969,97,0
00:00:02.62,83,78.1432800292969,97,0
00:00:02.62,83,78.0138854980469,97,0
00:00:02.63,83,78.0138854980469,97,0
00:00:02.63,83,78.0138854980469,97,0
00:00:02.64,83,77.9015808105469,97,0
00:00:02.64,83,77.9015808105469,97,0
00:00:02.64,83,77.9015808105469,97,0
00:00:02.65,83,77.7990417480469,97,0
00:00:02.65,83,77.7990417480469,97,0
00:00:02.66,83,77.7990417480469,97,0
00:00:02.66,83,77.7990417480469,97,0
00:00:02.66,83,77.6989364624023,97,0
00:00:02.67,83,77.6989364624023,97,0
00:00:02.67,83,77.6989364624023,97,0
00:00:02.68,83,77.5963973999023,97,0
00:00:02.68,83,77.5963973999023,97,0
00:00:02.68,83,77.5963973999023,97,0
00:00:02.69,83,77.4914169311523,97,0
00:00:02.69,83,77.4914169311523,97,0
00:00:02.70,83,77.4914169311523,97,0
00:00:02.70,83,77.4914169311523,97,0
00:00:02.70,83,77.3864364624023,97,0
00:00:02.71,83,77.3864364624023,97,0
00:00:02.71,83,77.3864364624023,97,0
00:00:02.72,83,77.2912216186523,97,0
00:00:02.72,83,77.2912216186523,97,0
00:00:02.72,83,77.2912216186523,97,0
00:00:02.73,83,77.2375030517578,97,0
00:00:02.73,83,77.2375030517578,97,0
00:00:02.74,83,77.2375030517578,97,0
00:00:02.74,83,77.2375030517578,97,0
00:00:02.74,83,77.3083114624023,97,0
00:00:02.75,83,77.3083114624023,97,0
00:00:02.75,83,77.3083114624023,97,0
00:00:02.76,83,77.5963973999023,97,0
00:00:02.76,83,77.5963973999023,97,0
00:00:02.76,83,77.5963973999023,97,0
00:00:02.77,83,78.1774597167969,97,0
00:00:02.77,83,78.1774597167969,97,0
00:00:02.78,83,78.1774597167969,97,0
00:00:02.78,83,78.1774597167969,97,0
00:00:02.78,83,79.0661468505859,97,0
00:00:02.79,83,79.0661468505859,97,0
00:00:02.79,83,79.0661468505859,97,0
00:00:02.80,83,80.208740234375,97,0
00:00:02.80,83,80.208740234375,97,0
00:00:02.80,83,80.208740234375,97,0
00:00:02.81,83,81.4782943725586,97,0
00:00:02.81,83,81.4782943725586,97,0
00:00:02.82,83,81.4782943725586,97,0
00:00:02.82,83,81.4782943725586,97,0
00:00:02.82,83,82.7112197875977,97,0
00:00:02.83,83,82.7112197875977,97,0
00:00:02.83,83,82.7112197875977,97,0
00:00:02.84,83,83.7537231445313,97,0
00:00:02.84,83,83.7537231445313,97,0
00:00:02.84,83,83.7537231445313,97,0
00:00:02.85,83,84.5081253051758,97,0
00:00:02.85,83,84.5081253051758,97,0
00:00:02.86,83,84.5081253051758,97,0
00:00:02.86,83,84.5081253051758,97,0
00:00:02.86,83,84.9353790283203,97,0
00:00:02.87,83,84.9353790283203,97,0
00:00:02.87,83,84.9353790283203,97,0
00:00:02.88,83,85.0452423095703,97,0
00:00:02.88,83,85.0452423095703,97,0
00:00:02.88,83,85.0452423095703,97,0
00:00:02.89,83,84.8767852783203,97,0
00:00:02.89,83,84.8767852783203,97,0
00:00:02.90,83,84.8767852783203,97,0
00:00:02.90,83,84.8767852783203,97,0
00:00:02.90,83,84.4934768676758,97,0
00:00:02.91,83,84.4934768676758,97,0
00:00:02.91,83,84.4934768676758,97,0
00:00:02.92,83,83.9490356445313,97,0
00:00:02.92,83,83.9490356445313,97,0
00:00:02.92,83,83.9490356445313,97,0
00:00:02.93,83,83.9490356445313,97,0
00:00:02.93,83,83.3069381713867,97,0
00:00:02.94,83,83.3069381713867,97,0
00:00:02.94,83,83.3069381713867,97,0
00:00:02.94,83,82.6086807250977,97,0
00:00:02.95,83,82.6086807250977,97,0
00:00:02.95,83,82.6086807250977,97,0
00:00:02.96,83,81.9055480957031,97,0
00:00:02.96,83,81.9055480957031,97,0
00:00:02.96,83,81.9055480957031,97,0
00:00:02.97,83,81.2317047119141,97,0
00:00:02.97,83,81.2317047119141,97,0
00:00:02.98,83,81.2317047119141,97,0
00:00:02.98,83,81.2317047119141,97,0
00:00:02.98,85,80.6237869262695,97,0
00:00:02.99,85,80.6237869262695,97,0
00:00:02.99,85,80.6237869262695,97,0
00:00:03.00,85,80.115966796875,97,0
00:00:03,85,80.115966796875,97,0
00:00:03.00,85,80.115966796875,97,0
00:00:03.01,85,79.7350997924805,97,0
00:00:03.01,85,79.7350997924805,97,0
00:00:03.02,85,79.7350997924805,97,0
00:00:03.02,85,79.7350997924805,97,0
00:00:03.02,85,79.4909591674805,97,0
00:00:03.03,85,79.4909591674805,97,0
00:00:03.03,85,79.4909591674805,97,0
00:00:03.04,85,79.3713302612305,97,0
00:00:03.04,85,79.3713302612305,97,0
00:00:03.04,85,79.3713302612305,97,0
00:00:03.05,85,79.3591232299805,97,0
00:00:03.05,85,79.3591232299805,97,0
00:00:03.06,85,79.3591232299805,97,0
00:00:03.06,85,79.3591232299805,97,0
00:00:03.06,85,79.4250411987305,97,0
00:00:03.07,85,79.4250411987305,97,0
00:00:03.07,85,79.4250411987305,97,0
00:00:03.08,85,79.5178146362305,97,0
00:00:03.08,85,79.5178146362305,97,0
00:00:03.08,85,79.5178146362305,97,0
00:00:03.09,85,79.6057052612305,97,0
00:00:03.09,85,79.6057052612305,97,0
00:00:03.10,85,79.6057052612305,97,0
00:00:03.10,85,79.6057052612305,97,0
00:00:03.10,85,79.6569747924805,97,0
00:00:03.11,85,79.6569747924805,97,0
00:00:03.11,85,79.6569747924805,97,0
00:00:03.12,85,79.6520919799805,97,0
00:00:03.12,85,79.6520919799805,97,0
00:00:03.12,85,79.6520919799805,97,0
00:00:03.13,85,79.5764083862305,97,0
00:00:03.13,85,79.5764083862305,97,0
00:00:03.14,85,79.5764083862305,97,0
00:00:03.14,85,79.5764083862305,97,0
00:00:03.14,85,79.4421310424805,97,0
00:00:03.15,85,79.4421310424805,97,0
00:00:03.15,85,79.4421310424805,97,0
00:00:03.16,85,79.2663497924805,97,0
00:00:03.16,85,79.2663497924805,97,0
00:00:03.16,85,79.2663497924805,97,0
00:00:03.17,85,79.0661468505859,97,0
00:00:03.17,85,79.0661468505859,97,0
00:00:03.18,85,79.0661468505859,97,0
00:00:03.18,85,79.0661468505859,97,0
00:00:03.18,85,78.8586273193359,97,0
00:00:03.19,85,78.8586273193359,97,0
00:00:03.19,85,78.8586273193359,97,0
00:00:03.20,85,78.6511001586914,97,0
00:00:03.20,85,78.6511001586914,97,0
00:00:03.20,85,78.6511001586914,97,0
00:00:03.21,85,78.6511001586914,97,0
00:00:03.21,85,78.4557876586914,97,0
00:00:03.22,85,78.4557876586914,97,0
00:00:03.22,85,78.4557876586914,97,0
00:00:03.22,85,78.2653579711914,97,0
00:00:03.23,85,78.2653579711914,97,0
00:00:03.23,85,78.2653579711914,97,0
00:00:03.24,85,78.0798034667969,97,0
00:00:03.24,85,78.0798034667969,97,0
00:00:03.24,85,78.0798034667969,97,0
00:00:03.25,85,78.0798034667969,97,0
00:00:03.25,85,77.9089050292969,97,0
00:00:03.26,85,77.9089050292969,97,0
00:00:03.26,85,77.9089050292969,97,0
00:00:03.26,85,77.7575378417969,97,0
00:00:03.27,85,77.7575378417969,97,0
00:00:03.27,85,77.7575378417969,97,0
00:00:03.28,85,77.6232528686523,97,0
00:00:03.28,85,77.6232528686523,97,0
00:00:03.28,85,77.6232528686523,97,0
00:00:03.29,85,77.6232528686523,97,0
00:00:03.29,85,77.5036239624023,97,0
00:00:03.30,85,77.5036239624023,97,0
00:00:03.30,85,77.5036239624023,97,0
00:00:03.30,85,77.4010848999023,97,0
00:00:03.31,85,77.4010848999023,97,0
00:00:03.31,85,77.4010848999023,97,0
00:00:03.32,85,77.3034286499023,97,0
00:00:03.32,85,77.3034286499023,97,0
00:00:03.32,85,77.3034286499023,97,0
00:00:03.33,85,77.2106475830078,97,0
00:00:03.33,85,77.2106475830078,97,0
00:00:03.34,85,77.2106475830078,97,0
00:00:03.34,85,77.2106475830078,97,0
00:00:03.34,85,77.1178741455078,97,0
00:00:03.35,85,77.1178741455078,97,0
00:00:03.35,85,77.1178741455078,97,0
00:00:03.36,85,77.0592803955078,97,0
00:00:03.36,85,77.0592803955078,97,0
00:00:03.36,85,77.0592803955078,97,0
00:00:03.37,85,77.0592803955078,97,0
00:00:03.37,85,77.0983428955078,97,0
00:00:03.38,85,77.0983428955078,97,0
00:00:03.38,85,77.0983428955078,97,0
00:00:03.38,85,77.3424911499023,97,0
00:00:03.39,85,77.3424911499023,97,0
00:00:03.39,85,77.3424911499023,97,0
00:00:03.40,85,77.8844909667969,97,0
00:00:03.40,85,77.8844909667969,97,0
00:00:03.40,85,77.8844909667969,97,0
00:00:03.41,85,78.7756195068359,97,0
00:00:03.41,85,78.7756195068359,97,0
00:00:03.42,85,78.7756195068359,97,0
00:00:03.42,85,78.7756195068359,97,0
00:00:03.42,85,79.974365234375,97,0
00:00:03.43,85,79.974365234375,97,0
00:00:03.43,85,79.974365234375,97,0
00:00:03.44,85,81.3659896850586,97,0
00:00:03.44,85,81.3659896850586,97,0
00:00:03.44,85,81.3659896850586,97,0
00:00:03.45,85,81.3659896850586,97,0
00:00:03.45,85,82.7844696044922,97,0
00:00:03.46,85,82.7844696044922,97,0
00:00:03.46,85,82.7844696044922,97,0
00:00:03.46,85,84.0540161132813,97,0
00:00:03.47,85,84.0540161132813,97,0
00:00:03.47,85,84.0540161132813,97,0
00:00:03.48,85,85.0428009033203,97,0
00:00:03.48,85,85.0428009033203,97,0
00:00:03.48,85,85.0428009033203,97,0
00:00:03.49,85,85.6897811889648,97,0
00:00:03.49,85,85.6897811889648,97,0
00:00:03.50,85,85.6897811889648,97,0
00:00:03.50,85,85.6897811889648,97,0
00:00:03.50,85,85.9900817871094,97,0
00:00:03.51,85,85.9900817871094,97,0
00:00:03.51,85,85.9900817871094,97,0
00:00:03.52,85,85.9778747558594,97,0
00:00:03.52,85,85.9778747558594,97,0
00:00:03.52,85,85.9778747558594,97,0
00:00:03.53,85,85.9778747558594,97,0
00:00:03.53,85,85.7117538452148,97,0
00:00:03.54,85,85.7117538452148,97,0
00:00:03.54,85,85.7117538452148,97,0
00:00:03.54,85,85.2600936889648,97,0
00:00:03.55,85,85.2600936889648,97,0
00:00:03.55,85,85.2600936889648,97,0
00:00:03.56,85,84.6863479614258,97,0
00:00:03.56,85,84.6863479614258,97,0
00:00:03.56,85,84.6863479614258,97,0
00:00:03.57,85,84.6863479614258,97,0
00:00:03.57,85,84.0418090820313,97,0
00:00:03.58,85,84.0418090820313,97,0
00:00:03.58,85,84.0418090820313,97,0
00:00:03.58,85,83.3655319213867,97,0
00:00:03.59,85,83.3655319213867,97,0
00:00:03.59,85,83.3655319213867,97,0
00:00:03.60,85,82.6843643188477,97,0
00:00:03.60,85,82.6843643188477,97,0
00:00:03.60,85,82.6843643188477,97,0
00:00:03.61,85,82.6843643188477,97,0
00:00:03.61,85,82.0373840332031,97,0
00:00:03.62,85,82.0373840332031,97,0
00:00:03.62,85,82.0373840332031,97,0
00:00:03.62,85,81.4563217163086,97,0
00:00:03.63,85,81.4563217163086,97,0
00:00:03.63,85,81.4563217163086,97,0
00:00:03.64,85,80.9680328369141,97,0
00:00:03.64,85,80.9680328369141,97,0
00:00:03.64,85,80.9680328369141,97,0
00:00:03.65,86,80.5944900512695,96,0
00:00:03.65,86,80.5944900512695,96,0
00:00:03.66,86,80.5944900512695,96,0
00:00:03.66,86,80.5944900512695,96,0
00:00:03.66,86,80.3430252075195,96,0
00:00:03.67,86,80.3430252075195,96,0
00:00:03.67,86,80.3430252075195,96,0
00:00:03.68,86,80.203857421875,96,0
00:00:03.68,86,80.203857421875,96,0
00:00:03.68,86,80.203857421875,96,0
00:00:03.69,86,80.203857421875,96,0
00:00:03.69,86,80.150146484375,96,0
00:00:03.70,86,80.150146484375,96,0
00:00:03.70,86,80.150146484375,96,0
00:00:03.70,86,80.147705078125,96,0
00:00:03.71,86,80.147705078125,96,0
00:00:03.71,86,80.147705078125,96,0
00:00:03.72,86,80.164794921875,96,0
00:00:03.72,86,80.164794921875,96,0
00:00:03.72,86,80.164794921875,96,0
00:00:03.73,86,80.159912109375,96,0
00:00:03.73,86,80.159912109375,96,0
00:00:03.74,86,80.159912109375,96,0
00:00:03.74,86,80.159912109375,96,0
00:00:03.74,86,80.123291015625,96,0
00:00:03.75,86,80.123291015625,96,0
00:00:03.75,86,80.123291015625,96,0
00:00:03.76,86,80.037841796875,96,0
00:00:03.76,86,80.037841796875,96,0
00:00:03.76,86,80.037841796875,96,0
00:00:03.77,86,80.037841796875,96,0
00:00:03.77,86,79.898681640625,96,0
00:00:03.78,86,79.898681640625,96,0
00:00:03.78,86,79.898681640625,96,0
00:00:03.78,86,79.7180099487305,96,0
00:00:03.79,86,79.7180099487305,96,0
00:00:03.79,86,79.7180099487305,96,0
00:00:03.80,86,79.5007247924805,96,0
00:00:03.80,86,79.5007247924805,96,0
00:00:03.80,86,79.5007247924805,96,0
00:00:03.81,86,79.2614669799805,96,0
00:00:03.81,86,79.2614669799805,96,0
00:00:03.82,86,79.2614669799805,96,0
00:00:03.82,86,79.2614669799805,96,0
00:00:03.82,86,79.0099945068359,96,0
00:00:03.83,86,79.0099945068359,96,0
00:00:03.83,86,79.0099945068359,96,0
00:00:03.84,86,78.7634124755859,96,0
00:00:03.84,86,78.7634124755859,96,0
00:00:03.84,86,78.7634124755859,96,0
00:00:03.85,86,78.7634124755859,96,0
00:00:03.85,86,78.5241470336914,96,0
00:00:03.86,86,78.5241470336914,96,0
00:00:03.86,86,78.5241470336914,96,0
00:00:03.86,86,78.2946548461914,96,0
00:00:03.87,86,78.2946548461914,96,0
00:00:03.87,86,78.2946548461914,96,0
00:00:03.88,86,78.0846862792969,96,0
00:00:03.88,86,78.0846862792969,96,0
00:00:03.88,86,78.0846862792969,96,0
00:00:03.89,86,77.8942565917969,96,0
00:00:03.89,86,77.8942565917969,96,0
00:00:03.90,86,77.8942565917969,96,0
00:00:03.90,86,77.8942565917969,96,0
00:00:03.90,86,77.7184677124023,96,0
00:00:03.91,86,77.7184677124023,96,0
00:00:03.91,86,77.7184677124023,96,0
00:00:03.92,86,77.5573348999023,96,0
00:00:03.92,86,77.5573348999023,96,0
00:00:03.92,86,77.5573348999023,96,0
00:00:03.93,86,77.5573348999023,96,0
00:00:03.93,86,77.4059677124023,96,0
00:00:03.94,86,77.4059677124023,96,0
00:00:03.94,86,77.4059677124023,96,0
00:00:03.94,86,77.2668075561523,96,0
00:00:03.95,86,77.2668075561523,96,0
00:00:03.95,86,77.2668075561523,96,0
00:00:03.96,86,77.1349639892578,96,0
00:00:03.96,86,77.1349639892578,96,0
00:00:03.96,86,77.1349639892578,96,0
00:00:03.97,86,77.0080108642578,96,0
00:00:03.97,86,77.0080108642578,96,0
00:00:03.98,86,77.0080108642578,96,0
00:00:03.98,86,77.0080108642578,96,0
00:00:03.98,86,76.8834991455078,96,0
00:00:03.99,86,76.8834991455078,96,0
00:00:03.99,86,76.8834991455078,96,0
00:00:04.00,86,76.7882843017578,96,0
00:00:04,86,76.7882843017578,96,0
00:00:04.00,86,76.7882843017578,96,0
00:00:04.01,86,76.7736358642578,96,0
00:00:04.01,86,76.7736358642578,96,0
00:00:04.02,86,76.7736358642578,96,0
00:00:04.02,86,76.7736358642578,96,0
00:00:04.02,86,76.9494171142578,96,0
00:00:04.03,86,76.9494171142578,96,0
00:00:04.03,86,76.9494171142578,96,0
00:00:04.04,86,77.4254989624023,96,0
00:00:04.04,86,77.4254989624023,96,0
00:00:04.04,86,77.4254989624023,96,0
00:00:04.05,86,78.2800064086914,96,0
00:00:04.05,86,78.2800064086914,96,0
00:00:04.06,86,78.2800064086914,96,0
00:00:04.06,86,78.2800064086914,96,0
00:00:04.06,86,79.5031661987305,96,0
00:00:04.07,86,79.5031661987305,96,0
00:00:04.07,86,79.5031661987305,96,0
00:00:04.08,86,81.0046539306641,96,0
00:00:04.08,86,81.0046539306641,96,0
00:00:04.08,86,81.0046539306641,96,0
00:00:04.09,86,82.6160049438477,96,0
00:00:04.09,86,82.6160049438477,96,0
00:00:04.10,86,82.6160049438477,96,0
00:00:04.10,86,82.6160049438477,96,0
00:00:04.10,86,84.1419067382813,96,0
00:00:04.11,86,84.1419067382813,96,0
00:00:04.11,86,84.1419067382813,96,0
00:00:04.12,86,85.4187850952148,96,0
00:00:04.12,86,85.4187850952148,96,0
00:00:04.12,86,85.4187850952148,96,0
00:00:04.13,86,86.3563003540039,96,0
00:00:04.13,86,86.3563003540039,96,0
00:00:04.14,86,86.3563003540039,96,0
00:00:04.14,86,86.3563003540039,96,0
00:00:04.14,86,86.9275970458984,96,0
00:00:04.15,86,86.9275970458984,96,0
00:00:04.15,86,86.9275970458984,96,0
00:00:04.16,86,87.1497650146484,96,0
00:00:04.16,86,87.1497650146484,96,0
00:00:04.16,86,87.1497650146484,96,0
00:00:04.17,86,87.0862884521484,96,0
00:00:04.17,86,87.0862884521484,96,0
00:00:04.18,86,87.0862884521484,96,0
00:00:04.18,86,87.0862884521484,96,0
00:00:04.18,86,86.7982025146484,96,0
00:00:04.19,86,86.7982025146484,96,0
00:00:04.19,86,86.7982025146484,96,0
00:00:04.20,86,86.3538589477539,96,0
00:00:04.20,86,86.3538589477539,96,0
00:00:04.20,86,86.3538589477539,96,0
00:00:04.21,86,86.3538589477539,96,0
00:00:04.21,86,85.8045349121094,96,0
00:00:04.22,86,85.8045349121094,96,0
00:00:04.22,86,85.8045349121094,96,0
00:00:04.22,86,85.1844024658203,96,0
00:00:04.23,86,85.1844024658203,96,0
00:00:04.23,86,85.1844024658203,96,0
00:00:04.24,86,84.5227737426758,96,0
00:00:04.24,86,84.5227737426758,96,0
00:00:04.24,86,84.5227737426758,96,0
00:00:04.25,86,84.5227737426758,96,0
00:00:04.25,86,83.8440551757813,96,0
00:00:04.26,86,83.8440551757813,96,0
00:00:04.26,86,83.8440551757813,96,0
00:00:04.26,86,83.1750946044922,96,0
00:00:04.27,86,83.1750946044922,96,0
00:00:04.27,86,83.1750946044922,96,0
00:00:04.28,86,82.5452041625977,96,0
00:00:04.28,86,82.5452041625977,96,0
00:00:04.28,86,82.5452041625977,96,0
00:00:04.29,86,82.5452041625977,96,0
00:00:04.29,86,81.9836730957031,96,0
00:00:04.30,86,81.9836730957031,96,0
00:00:04.30,86,81.9836730957031,96,0
00:00:04.30,86,81.5124740600586,96,0
00:00:04.31,86,81.5124740600586,96,0
00:00:04.31,86,81.5124740600586,96,0
00:00:04.32,88,81.1438140869141,96,0
00:00:04.32,88,81.1438140869141,96,0
00:00:04.32,88,81.1438140869141,96,0
00:00:04.33,88,80.8752593994141,96,0
00:00:04.33,88,80.8752593994141,96,0
00:00:04.34,88,80.8752593994141,96,0
00:00:04.34,88,80.8752593994141,96,0
00:00:04.34,88,80.6921463012695,96,0
00:00:04.35,88,80.6921463012695,96,0
00:00:04.35,88,80.6921463012695,96,0
00:00:04.36,88,80.5725173950195,96,0
00:00:04.36,88,80.5725173950195,96,0
00:00:04.36,88,80.5725173950195,96,0
00:00:04.37,88,80.4846267700195,96,0
00:00:04.37,88,80.4846267700195,96,0
00:00:04.38,88,80.4846267700195,96,0
00:00:04.38,88,80.4846267700195,96,0
00:00:04.38,88,80.4040603637695,96,0
00:00:04.39,88,80.4040603637695,96,0
00:00:04.39,88,80.4040603637695,96,0
00:00:04.40,88,80.3015213012695,96,0
00:00:04.40,88,80.3015213012695,96,0
00:00:04.40,88,80.3015213012695,96,0
00:00:04.41,88,80.164794921875,96,0
00:00:04.41,88,80.164794921875,96,0
00:00:04.42,88,80.164794921875,96,0
00:00:04.42,88,80.164794921875,96,0
00:00:04.42,88,79.986572265625,96,0
00:00:04.43,88,79.986572265625,96,0
00:00:04.43,88,79.986572265625,96,0
00:00:04.44,88,79.771728515625,96,0
00:00:04.44,88,79.771728515625,96,0
00:00:04.44,88,79.771728515625,96,0
00:00:04.45,88,79.5300216674805,96,0
00:00:04.45,88,79.5300216674805,96,0
00:00:04.46,88,79.5300216674805,96,0
00:00:04.46,88,79.5300216674805,96,0
00:00:04.46,88,79.2736740112305,96,0
00:00:04.47,88,79.2736740112305,96,0
00:00:04.47,88,79.2736740112305,96,0
00:00:04.48,88,79.0148773193359,96,0
00:00:04.48,88,79.0148773193359,96,0
00:00:04.48,88,79.0148773193359,96,0
00:00:04.49,88,78.7585296630859,96,0
00:00:04.49,88,78.7585296630859,96,0
00:00:04.50,88,78.7585296630859,96,0
00:00:04.50,88,78.7585296630859,96,0
00:00:04.50,88,78.4997329711914,96,0
00:00:04.51,88,78.4997329711914,96,0
00:00:04.51,88,78.4997329711914,96,0
00:00:04.52,88,78.2409362792969,96,0
00:00:04.52,88,78.2409362792969,96,0
00:00:04.52,88,78.2409362792969,96,0
00:00:04.53,88,77.9919128417969,96,0
00:00:04.53,88,77.9919128417969,96,0
00:00:04.54,88,77.9919128417969,96,0
00:00:04.54,88,77.9919128417969,96,0
00:00:04.54,88,77.7575378417969,96,0
00:00:04.55,88,77.7575378417969,96,0
00:00:04.55,88,77.7575378417969,96,0
00:00:04.56,88,77.5378036499023,96,0
00:00:04.56,88,77.5378036499023,96,0
00:00:04.56,88,77.5378036499023,96,0
00:00:04.57,88,77.5378036499023,96,0
00:00:04.57,88,77.3351669311523,96,0
00:00:04.58,88,77.3351669311523,96,0
00:00:04.58,88,77.3351669311523,96,0
00:00:04.58,88,77.1471710205078,96,0
00:00:04.59,88,77.1471710205078,96,0
00:00:04.59,88,77.1471710205078,96,0
00:00:04.60,88,76.9665069580078,96,0
00:00:04.60,88,76.9665069580078,96,0
00:00:04.60,88,76.9665069580078,96,0
00:00:04.61,88,76.7956085205078,96,0
00:00:04.61,88,76.7956085205078,96,0
00:00:04.62,88,76.7956085205078,96,0
00:00:04.62,88,76.7956085205078,96,0
00:00:04.62,88,76.6393508911133,96,0
00:00:04.63,88,76.6393508911133,96,0
00:00:04.63,88,76.6393508911133,96,0
00:00:04.64,88,76.4977493286133,96,0
00:00:04.64,88,76.4977493286133,96,0
00:00:04.64,88,76.4977493286133,96,0
00:00:04.65,88,76.3683547973633,96,0
00:00:04.65,88,76.3683547973633,96,0
00:00:04.66,88,76.3683547973633,96,0
00:00:04.66,88,76.3683547973633,96,0
00:00:04.66,88,76.2560501098633,96,0
00:00:04.67,88,76.2560501098633,96,0
00:00:04.67,88,76.2560501098633,96,0
00:00:04.68,88,76.1535034179688,96,0
00:00:04.68,88,76.1535034179688,96,0
00:00:04.68,88,76.1535034179688,96,0
00:00:04.69,88,76.0875854492188,96,0
00:00:04.69,88,76.0875854492188,96,0
00:00:04.70,88,76.0875854492188,96,0
00:00:04.70,88,76.0875854492188,96,0
00:00:04.70,88,76.1315307617188,96,0
00:00:04.71,88,76.1315307617188,96,0
00:00:04.71,88,76.1315307617188,96,0
00:00:04.72,88,76.4000930786133,96,0
00:00:04.72,88,76.4000930786133,96,0
00:00:04.72,88,76.4000930786133,96,0
00:00:04.73,88,76.9958038330078,96,0
00:00:04.73,88,76.9958038330078,96,0
00:00:04.74,88,76.9958038330078,96,0
00:00:04.74,88,76.9958038330078,96,0
00:00:04.74,88,77.9821472167969,96,0
00:00:04.75,88,77.9821472167969,96,0
00:00:04.75,88,77.9821472167969,96,0
00:00:04.76,88,79.3371505737305,96,0
00:00:04.76,88,79.3371505737305,96,0
00:00:04.76,88,79.3371505737305,96,0
00:00:04.77,88,80.9485015869141,96,0
00:00:04.77,88,80.9485015869141,96,0
00:00:04.78,88,80.9485015869141,96,0
00:00:04.78,88,80.9485015869141,96,0
00:00:04.78,88,82.6306533813477,96,0
00:00:04.79,88,82.6306533813477,96,0
00:00:04.79,88,82.6306533813477,96,0
00:00:04.80,88,84.2029418945313,96,0
00:00:04.80,88,84.2029418945313,96,0
00:00:04.80,88,84.2029418945313,96,0
00:00:04.81,88,85.4993515014648,96,0
00:00:04.81,88,85.4993515014648,96,0
00:00:04.82,88,85.4993515014648,96,0
00:00:04.82,88,85.4993515014648,96,0
00:00:04.82,88,86.4393081665039,96,0
00:00:04.83,88,86.4393081665039,96,0
00:00:04.83,88,86.4393081665039,96,0
00:00:04.84,88,86.9983978271484,96,0
00:00:04.84,88,86.9983978271484,96,0
00:00:04.84,88,86.9983978271484,96,0
00:00:04.85,88,87.2083587646484,96,0
00:00:04.85,88,87.2083587646484,96,0
00:00:04.86,88,87.2083587646484,96,0
00:00:04.86,88,87.2083587646484,96,0
00:00:04.86,88,87.1204681396484,96,0
00:00:04.87,88,87.1204681396484,96,0
00:00:04.87,88,87.1204681396484,96,0
00:00:04.88,88,86.8177337646484,96,0
00:00:04.88,88,86.8177337646484,96,0
00:00:04.88,88,86.8177337646484,96,0
00:00:04.89,88,86.3660659790039,96,0
00:00:04.89,88,86.3660659790039,96,0
00:00:04.90,88,86.3660659790039,96,0
00:00:04.90,88,86.3660659790039,96,0
00:00:04.90,88,85.8094177246094,96,0
00:00:04.91,88,85.8094177246094,96,0
00:00:04.91,88,85.8094177246094,96,0
00:00:04.92,88,85.1844024658203,96,0
00:00:04.92,88,85.1844024658203,96,0
00:00:04.92,88,85.1844024658203,96,0
00:00:04.93,88,85.1844024658203,96,0
00:00:04.93,88,84.5105667114258,96,0
00:00:04.94,88,84.5105667114258,96,0
00:00:04.94,88,84.5105667114258,96,0
00:00:04.94,88,83.8074340820313,96,0
00:00:04.95,88,83.8074340820313,96,0
00:00:04.95,88,83.8074340820313,96,0
00:00:04.96,88,83.1091766357422,96,0
00:00:04.96,88,83.1091766357422,96,0
00:00:04.96,88,83.1091766357422,96,0
00:00:04.97,88,82.4499893188477,96,0
00:00:04.97,88,82.4499893188477,96,0
00:00:04.98,88,82.4499893188477,96,0
00:00:04.98,88,82.4499893188477,96,0
00:00:04.98,89,81.8689270019531,96,0
00:00:04.99,89,81.8689270019531,96,0
00:00:04.99,89,81.8689270019531,96,0
00:00:05.00,89,81.3879623413086,96,0
00:00:05,89,81.3879623413086,96,0
00:00:05.00,89,81.3879623413086,96,0
00:00:05.01,89,81.0168609619141,96,0
00:00:05.01,89,81.0168609619141,96,0
00:00:05.02,89,81.0168609619141,96,0
00:00:05.02,89,81.0168609619141,96,0
00:00:05.02,89,80.7482986450195,96,0
00:00:05.03,89,80.7482986450195,96,0
00:00:05.03,89,80.7482986450195,96,0
00:00:05.04,89,80.5676345825195,96,0
00:00:05.04,89,80.5676345825195,96,0
00:00:05.04,89,80.5676345825195,96,0
00:00:05.05,89,80.4431228637695,96,0
00:00:05.05,89,80.4431228637695,96,0
00:00:05.06,89,80.4431228637695,96,0
00:00:05.06,89,80.4431228637695,96,0
00:00:05.06,89,80.3527908325195,96,0
00:00:05.07,89,80.3527908325195,96,0
00:00:05.07,89,80.3527908325195,96,0
00:00:05.08,89,80.2600173950195,96,0
00:00:05.08,89,80.2600173950195,96,0
00:00:05.08,89,80.2600173950195,96,0
00:00:05.09,89,80.145263671875,96,0
00:00:05.09,89,80.145263671875,96,0
00:00:05.10,89,80.145263671875,96,0
00:00:05.10,89,80.145263671875,96,0
00:00:05.10,89,79.991455078125,96,0
00:00:05.11,89,79.991455078125,96,0
00:00:05.11,89,79.991455078125,96,0
00:00:05.12,89,79.796142578125,96,0
00:00:05.12,89,79.796142578125,96,0
00:00:05.12,89,79.796142578125,96,0
00:00:05.13,89,79.5666427612305,96,0
00:00:05.13,89,79.5666427612305,96,0
00:00:05.14,89,79.5666427612305,96,0
00:00:05.14,89,79.5666427612305,96,0
00:00:05.14,89,79.3078536987305,96,0
00:00:05.15,89,79.3078536987305,96,0
00:00:05.15,89,79.3078536987305,96,0
00:00:05.16,89,79.0319671630859,96,0
00:00:05.16,89,79.0319671630859,96,0
00:00:05.16,89,79.0319671630859,96,0
00:00:05.17,89,78.7487564086914,96,0
00:00:05.17,89,78.7487564086914,96,0
00:00:05.18,89,78.7487564086914,96,0
00:00:05.18,89,78.7487564086914,96,0
00:00:05.18,89,78.4606704711914,96,0
00:00:05.19,89,78.4606704711914,96,0
00:00:05.19,89,78.4606704711914,96,0
00:00:05.20,89,78.1701354980469,96,0
00:00:05.20,89,78.1701354980469,96,0
00:00:05.20,89,78.1701354980469,96,0
00:00:05.21,89,78.1701354980469,96,0
00:00:05.21,89,77.8893737792969,96,0
00:00:05.22,89,77.8893737792969,96,0
00:00:05.22,89,77.8893737792969,96,0
00:00:05.22,89,77.6183700561523,96,0
00:00:05.23,89,77.6183700561523,96,0
00:00:05.23,89,77.6183700561523,96,0
00:00:05.24,89,77.3546981811523,96,0
00:00:05.24,89,77.3546981811523,96,0
00:00:05.24,89,77.3546981811523,96,0
00:00:05.25,89,77.3546981811523,96,0
00:00:05.25,89,77.1056671142578,96,0
00:00:05.26,89,77.1056671142578,96,0
00:00:05.26,89,77.1056671142578,96,0
00:00:05.26,89,76.8688507080078,96,0
00:00:05.27,89,76.8688507080078,96,0
00:00:05.27,89,76.8688507080078,96,0
00:00:05.28,89,76.6515579223633,96,0
00:00:05.28,89,76.6515579223633,96,0
00:00:05.28,89,76.6515579223633,96,0
00:00:05.29,89,76.6515579223633,96,0
00:00:05.29,89,76.4562454223633,96,0
00:00:05.30,89,76.4562454223633,96,0
00:00:05.30,89,76.4562454223633,96,0
00:00:05.30,89,76.2853469848633,96,0
00:00:05.31,89,76.2853469848633,96,0
00:00:05.31,89,76.2853469848633,96,0
00:00:05.32,89,76.1315307617188,96,0
00:00:05.32,89,76.1315307617188,96,0
00:00:05.32,89,76.1315307617188,96,0
00:00:05.33,89,75.9923706054688,96,0
00:00:05.33,89,75.9923706054688,96,0
00:00:05.34,89,75.9923706054688,96,0
00:00:05.34,89,75.9923706054688,96,0
00:00:05.34,89,75.8678588867188,96,0
00:00:05.35,89,75.8678588867188,96,0
00:00:05.35,89,75.8678588867188,96,0
00:00:05.36,89,75.7531127929688,96,0
00:00:05.36,89,75.7531127929688,96,0
00:00:05.36,89,75.7531127929688,96,0
00:00:05.37,89,75.6456832885742,96,0
00:00:05.37,89,75.6456832885742,96,0
00:00:05.38,89,75.6456832885742,96,0
00:00:05.38,89,75.6456832885742,96,0
00:00:05.38,89,75.5553512573242,96,0
00:00:05.39,89,75.5553512573242,96,0
00:00:05.39,89,75.5553512573242,96,0
00:00:05.40,89,75.4772262573242,96,0
00:00:05.40,89,75.4772262573242,96,0
00:00:05.40,89,75.4772262573242,96,0
00:00:05.41,89,75.4088668823242,96,0
00:00:05.41,89,75.4088668823242,96,0
00:00:05.42,89,75.4088668823242,96,0
00:00:05.42,89,75.4088668823242,96,0
00:00:05.42,89,75.3600387573242,96,0
00:00:05.43,89,75.3600387573242,96,0
00:00:05.43,89,75.3600387573242,96,0
00:00:05.44,89,75.3991012573242,96,0
00:00:05.44,89,75.3991012573242,96,0
00:00:05.44,89,75.3991012573242,96,0
00:00:05.45,89,75.6212692260742,96,0
00:00:05.45,89,75.6212692260742,96,0
00:00:05.46,89,75.6212692260742,96,0
00:00:05.46,89,75.6212692260742,96,0
00:00:05.46,89,76.1437377929688,96,0
00:00:05.47,89,76.1437377929688,96,0
00:00:05.47,89,76.1437377929688,96,0
00:00:05.48,89,77.0421905517578,96,0
00:00:05.48,89,77.0421905517578,96,0
00:00:05.48,89,77.0421905517578,96,0
00:00:05.49,89,78.3312759399414,96,0
00:00:05.49,89,78.3312759399414,96,0
00:00:05.50,89,78.3312759399414,96,0
00:00:05.50,89,78.3312759399414,96,0
00:00:05.50,89,79.920654296875,96,0
00:00:05.51,89,79.920654296875,96,0
00:00:05.51,89,79.920654296875,96,0
00:00:05.52,89,81.6516342163086,96,0
00:00:05.52,89,81.6516342163086,96,0
00:00:05.52,89,81.6516342163086,96,0
00:00:05.53,89,83.3240280151367,96,0
00:00:05.53,89,83.3240280151367,96,0
00:00:05.54,89,83.3240280151367,96,0
00:00:05.54,89,83.3240280151367,96,0
00:00:05.54,89,84.7669219970703,96,0
00:00:05.55,89,84.7669219970703,96,0
00:00:05.55,89,84.7669219970703,96,0
00:00:05.56,89,85.8655700683594,96,0
00:00:05.56,89,85.8655700683594,96,0
00:00:05.56,89,85.8655700683594,96,0
00:00:05.57,89,86.5735855102539,96,0
00:00:05.57,89,86.5735855102539,96,0
00:00:05.58,89,86.5735855102539,96,0
00:00:05.58,89,86.5735855102539,96,0
00:00:05.58,89,86.9080657958984,96,0
00:00:05.59,89,86.9080657958984,96,0
00:00:05.59,89,86.9080657958984,96,0
00:00:05.60,89,86.9153900146484,96,0
00:00:05.60,89,86.9153900146484,96,0
00:00:05.60,89,86.9153900146484,96,0
00:00:05.61,89,86.6663589477539,96,0
00:00:05.61,89,86.6663589477539,96,0
00:00:05.62,89,86.6663589477539,96,0
00:00:05.62,89,86.6663589477539,96,0
00:00:05.62,89,86.2342224121094,96,0
00:00:05.63,89,86.2342224121094,96,0
00:00:05.63,89,86.2342224121094,96,0
00:00:05.64,89,85.6751327514648,96,0
00:00:05.64,89,85.6751327514648,96,0
00:00:05.64,89,85.6751327514648,96,0
00:00:05.65,89,85.0330352783203,96,0
00:00:05.65,89,85.0330352783203,96,0
00:00:05.66,89,85.0330352783203,96,0
00:00:05.66,89,85.0330352783203,96,0
00:00:05.66,89,84.3396682739258,96,0
00:00:05.67,89,84.3396682739258,96,0
00:00:05.67,89,84.3396682739258,96,0
00:00:05.68,89,83.6316452026367,96,0
00:00:05.68,89,83.6316452026367,96,0
00:00:05.68,89,83.6316452026367,96,0
00:00:05.69,89,82.9358367919922,96,0
00:00:05.69,89,82.9358367919922,96,0
00:00:05.70,89,82.9358367919922,96,0
00:00:05.70,89,82.9358367919922,96,0
00:00:05.70,89,82.2912979125977,96,0
00:00:05.71,89,82.2912979125977,96,0
00:00:05.71,89,82.2912979125977,96,0
00:00:05.72,89,81.7224349975586,96,0
00:00:05.72,89,81.7224349975586,96,0
00:00:05.72,89,81.7224349975586,96,0
00:00:05.73,89,81.2536849975586,96,0
00:00:05.73,89,81.2536849975586,96,0
00:00:05.74,89,81.2536849975586,96,0
00:00:05.74,89,81.2536849975586,96,0
00:00:05.74,89,80.8972320556641,96,0
00:00:05.75,89,80.8972320556641,96,0
00:00:05.75,89,80.8972320556641,96,0
00:00:05.76,89,80.6506423950195,96,0
00:00:05.76,89,80.6506423950195,96,0
00:00:05.76,89,80.6506423950195,96,0
00:00:05.77,89,80.4919509887695,96,0
00:00:05.77,89,80.4919509887695,96,0
00:00:05.78,89,80.4919509887695,96,0
00:00:05.78,89,80.4919509887695,96,0
00:00:05.78,89,80.3991775512695,96,0
00:00:05.79,89,80.3991775512695,96,0
00:00:05.79,89,80.3991775512695,96,0
00:00:05.80,89,80.3381423950195,96,0
00:00:05.80,89,80.3381423950195,96,0
00:00:05.80,89,80.3381423950195,96,0
00:00:05.81,89,80.2746658325195,96,0
00:00:05.81,89,80.2746658325195,96,0
00:00:05.82,89,80.2746658325195,96,0
00:00:05.82,89,80.2746658325195,96,0
00:00:05.82,89,80.179443359375,96,0
00:00:05.83,89,80.179443359375,96,0
00:00:05.83,89,80.179443359375,96,0
00:00:05.84,89,80.045166015625,96,0
00:00:05.84,89,80.045166015625,96,0
00:00:05.84,89,80.045166015625,96,0
00:00:05.85,89,79.862060546875,96,0
00:00:05.85,89,79.862060546875,96,0
00:00:05.86,89,79.862060546875,96,0
00:00:05.86,89,79.862060546875,96,0
00:00:05.86,89,79.6423263549805,96,0
00:00:05.87,89,79.6423263549805,96,0
00:00:05.87,89,79.6423263549805,96,0
00:00:05.88,89,79.3908615112305,96,0
00:00:05.88,89,79.3908615112305,96,0
00:00:05.88,89,79.3908615112305,96,0
00:00:05.89,89,79.1174163818359,96,0
00:00:05.89,89,79.1174163818359,96,0
00:00:05.90,89,79.1174163818359,96,0
00:00:05.90,89,79.1174163818359,96,0
00:00:05.90,89,78.8342132568359,96,0
00:00:05.91,89,78.8342132568359,96,0
00:00:05.91,89,78.8342132568359,96,0
00:00:05.92,89,78.5461196899414,96,0
00:00:05.92,89,78.5461196899414,96,0
00:00:05.92,89,78.5461196899414,96,0
00:00:05.93,89,78.2555923461914,96,0
00:00:05.93,89,78.2555923461914,96,0
00:00:05.94,89,78.2555923461914,96,0
00:00:05.94,89,78.2555923461914,96,0
00:00:05.94,89,77.9748229980469,96,0
00:00:05.95,89,77.9748229980469,96,0
00:00:05.95,89,77.9748229980469,96,0
00:00:05.96,89,77.7062606811523,96,0
00:00:05.96,89,77.7062606811523,96,0
00:00:05.96,89,77.7062606811523,96,0
00:00:05.97,89,77.4523544311523,96,0
00:00:05.97,89,77.4523544311523,96,0
00:00:05.98,89,77.4523544311523,96,0
00:00:05.98,89,77.4523544311523,96,0
00:00:05.98,90,77.2130889892578,96,0
00:00:05.99,90,77.2130889892578,96,0
00:00:05.99,90,77.2130889892578,96,0
00:00:06.00,90,76.9933624267578,96,0
00:00:06,90,76.9933624267578,96,0
00:00:06.00,90,76.9933624267578,96,0
00:00:06.01,90,76.7858428955078,96,0
00:00:06.01,90,76.7858428955078,96,0
00:00:06.02,90,76.7858428955078,96,0
00:00:06.02,90,76.7858428955078,96,0
00:00:06.02,90,76.5929641723633,96,0
00:00:06.03,90,76.5929641723633,96,0
00:00:06.03,90,76.5929641723633,96,0
00:00:06.04,90,76.4123001098633,96,0
00:00:06.04,90,76.4123001098633,96,0
00:00:06.04,90,76.4123001098633,96,0
00:00:06.05,90,76.2487182617188,96,0
00:00:06.05,90,76.2487182617188,96,0
00:00:06.06,90,76.2487182617188,96,0
00:00:06.06,90,76.2487182617188,96,0
00:00:06.06,90,76.1046752929688,96,0
00:00:06.07,90,76.1046752929688,96,0
00:00:06.07,90,76.1046752929688,96,0
00:00:06.08,90,75.9801635742188,96,0
00:00:06.08,90,75.9801635742188,96,0
00:00:06.08,90,75.9801635742188,96,0
00:00:06.09,90,75.8800659179688,96,0
00:00:06.09,90,75.8800659179688,96,0
00:00:06.10,90,75.8800659179688,96,0
00:00:06.10,90,75.8800659179688,96,0
00:00:06.10,90,75.8068237304688,96,0
00:00:06.11,90,75.8068237304688,96,0
00:00:06.11,90,75.8068237304688,96,0
00:00:06.12,90,75.7506713867188,96,0
00:00:06.12,90,75.7506713867188,96,0
00:00:06.12,90,75.7506713867188,96,0
00:00:06.13,90,75.7067184448242,96,0
00:00:06.13,90,75.7067184448242,96,0
00:00:06.14,90,75.7067184448242,96,0
00:00:06.14,90,75.7067184448242,96,0
00:00:06.14,90,75.6774215698242,96,0
00:00:06.15,90,75.6774215698242,96,0
00:00:06.15,90,75.6774215698242,96,0
00:00:06.16,90,75.6603317260742,96,0
00:00:06.16,90,75.6603317260742,96,0
00:00:06.16,90,75.6603317260742,96,0
00:00:06.17,90,75.6383590698242,96,0
00:00:06.17,90,75.6383590698242,96,0
00:00:06.18,90,75.6383590698242,96,0
00:00:06.18,90,75.6383590698242,96,0
00:00:06.18,90,75.6115036010742,96,0
00:00:06.19,90,75.6115036010742,96,0
00:00:06.19,90,75.6115036010742,96,0
00:00:06.20,90,75.5797653198242,96,0
00:00:06.20,90,75.5797653198242,96,0
00:00:06.20,90,75.5797653198242,96,0
00:00:06.21,90,75.5626754760742,96,0
00:00:06.21,90,75.5626754760742,96,0
00:00:06.22,90,75.5626754760742,96,0
00:00:06.22,90,75.5626754760742,96,0
00:00:06.22,90,75.6212692260742,96,0
00:00:06.23,90,75.6212692260742,96,0
00:00:06.23,90,75.6212692260742,96,0
00:00:06.24,90,75.8678588867188,96,0
00:00:06.24,90,75.8678588867188,96,0
00:00:06.24,90,75.8678588867188,96,0
00:00:06.25,90,76.4220657348633,96,0
00:00:06.25,90,76.4220657348633,96,0
00:00:06.26,90,76.4220657348633,96,0
00:00:06.26,90,76.4220657348633,96,0
00:00:06.26,90,77.3498153686523,96,0
00:00:06.27,90,77.3498153686523,96,0
00:00:06.27,90,77.3498153686523,96,0
00:00:06.28,90,78.6486587524414,96,0
00:00:06.28,90,78.6486587524414,96,0
00:00:06.28,90,78.6486587524414,96,0
00:00:06.29,90,80.220947265625,96,0
00:00:06.29,90,80.220947265625,96,0
00:00:06.30,90,80.220947265625,96,0
00:00:06.30,90,80.220947265625,96,0
00:00:06.30,90,81.9006652832031,96,0
00:00:06.31,90,81.9006652832031,96,0
00:00:06.31,90,81.9006652832031,96,0
00:00:06.32,90,83.4851608276367,96,0
00:00:06.32,90,83.4851608276367,96,0
00:00:06.32,90,83.4851608276367,96,0
00:00:06.33,90,84.8059844970703,96,0
00:00:06.33,90,84.8059844970703,96,0
00:00:06.34,90,84.8059844970703,96,0
00:00:06.34,90,84.8059844970703,96,0
00:00:06.34,90,85.7581481933594,96,0
00:00:06.35,90,85.7581481933594,96,0
00:00:06.35,90,85.7581481933594,96,0
00:00:06.36,90,86.3074722290039,96,0
00:00:06.36,90,86.3074722290039,96,0
00:00:06.36,90,86.3074722290039,96,0
00:00:06.37,90,86.4759292602539,96,0
00:00:06.37,90,86.4759292602539,96,0
00:00:06.38,90,86.4759292602539,96,0
00:00:06.38,90,86.4759292602539,96,0
00:00:06.38,90,86.3270034790039,96,0
00:00:06.39,90,86.3270034790039,96,0
00:00:06.39,90,86.3270034790039,96,0
00:00:06.40,90,85.9412536621094,96,0
00:00:06.40,90,85.9412536621094,96,0
00:00:06.40,90,85.9412536621094,96,0
00:00:06.41,90,85.3919296264648,96,0
00:00:06.41,90,85.3919296264648,96,0
00:00:06.42,90,85.3919296264648,96,0
00:00:06.42,90,85.3919296264648,96,0
00:00:06.42,90,84.7376174926758,96,0
00:00:06.43,90,84.7376174926758,96,0
00:00:06.43,90,84.7376174926758,96,0
00:00:06.44,90,84.0222778320313,96,0
00:00:06.44,90,84.0222778320313,96,0
00:00:06.44,90,84.0222778320313,96,0
00:00:06.45,90,83.2849655151367,96,0
00:00:06.45,90,83.2849655151367,96,0
00:00:06.46,90,83.2849655151367,96,0
00:00:06.46,90,83.2849655151367,96,0
00:00:06.46,90,82.5622940063477,96,0
00:00:06.47,90,82.5622940063477,96,0
00:00:06.47,90,82.5622940063477,96,0
00:00:06.48,90,81.8982238769531,96,0
00:00:06.48,90,81.8982238769531,96,0
00:00:06.48,90,81.8982238769531,96,0
00:00:06.49,90,81.3269271850586,96,0
00:00:06.49,90,81.3269271850586,96,0
00:00:06.50,90,81.3269271850586,96,0
00:00:06.50,90,81.3269271850586,96,0
00:00:06.50,90,80.8777008056641,96,0
00:00:06.51,90,80.8777008056641,96,0
00:00:06.51,90,80.8777008056641,96,0
00:00:06.52,90,80.5578689575195,96,0
00:00:06.52,90,80.5578689575195,96,0
00:00:06.52,90,80.5578689575195,96,0
00:00:06.53,90,80.3625564575195,96,0
00:00:06.53,90,80.3625564575195,96,0
00:00:06.54,90,80.3625564575195,96,0
00:00:06.54,90,80.3625564575195,96,0
00:00:06.54,90,80.2722244262695,96,0
00:00:06.55,90,80.2722244262695,96,0
00:00:06.55,90,80.2722244262695,96,0
00:00:06.56,90,80.2526931762695,96,0
00:00:06.56,90,80.2526931762695,96,0
00:00:06.56,90,80.2526931762695,96,0
00:00:06.57,90,80.2673416137695,96,0
00:00:06.57,90,80.2673416137695,96,0
00:00:06.58,90,80.2673416137695,96,0
00:00:06.58,90,80.2673416137695,96,0
00:00:06.58,90,80.2771072387695,96,0
00:00:06.59,90,80.2771072387695,96,0
00:00:06.59,90,80.2771072387695,96,0
00:00:06.60,90,80.2575759887695,96,0
00:00:06.60,90,80.2575759887695,96,0
00:00:06.60,90,80.2575759887695,96,0
00:00:06.61,90,80.179443359375,96,0
00:00:06.61,90,80.179443359375,96,0
00:00:06.62,90,80.179443359375,96,0
00:00:06.62,90,80.179443359375,96,0
00:00:06.62,90,80.045166015625,96,0
00:00:06.63,90,80.045166015625,96,0
00:00:06.63,90,80.045166015625,96,0
00:00:06.64,90,79.864501953125,96,0
00:00:06.64,90,79.864501953125,96,0
00:00:06.64,90,79.864501953125,96,0
00:00:06.65,89,79.6447677612305,97,0
00:00:06.65,89,79.6447677612305,97,0
00:00:06.66,89,79.6447677612305,97,0
00:00:06.66,89,79.6447677612305,97,0
00:00:06.66,89,79.4055099487305,97,0
00:00:06.67,89,79.4055099487305,97,0
00:00:06.67,89,79.4055099487305,97,0
00:00:06.68,89,79.1467132568359,97,0
00:00:06.68,89,79.1467132568359,97,0
00:00:06.68,89,79.1467132568359,97,0
00:00:06.69,89,78.8879241943359,97,0
00:00:06.69,89,78.8879241943359,97,0
00:00:06.70,89,78.8879241943359,97,0
00:00:06.70,89,78.8879241943359,97,0
00:00:06.70,89,78.6315689086914,97,0
00:00:06.71,89,78.6315689086914,97,0
00:00:06.71,89,78.6315689086914,97,0
00:00:06.72,89,78.3776626586914,97,0
00:00:06.72,89,78.3776626586914,97,0
00:00:06.72,89,78.3776626586914,97,0
00:00:06.73,89,78.1335144042969,97,0
00:00:06.73,89,78.1335144042969,97,0
00:00:06.74,89,78.1335144042969,97,0
00:00:06.74,89,78.1335144042969,97,0
00:00:06.74,89,77.9015808105469,97,0
00:00:06.75,89,77.9015808105469,97,0
00:00:06.75,89,77.9015808105469,97,0
00:00:06.76,89,77.6842880249023,97,0
00:00:06.76,89,77.6842880249023,97,0
00:00:06.76,89,77.6842880249023,97,0
00:00:06.77,89,77.4767684936523,97,0
00:00:06.77,89,77.4767684936523,97,0
00:00:06.78,89,77.4767684936523,97,0
00:00:06.78,89,77.4767684936523,97,0
00:00:06.78,89,77.2838973999023,97,0
00:00:06.79,89,77.2838973999023,97,0
00:00:06.79,89,77.2838973999023,97,0
00:00:06.80,89,77.0959014892578,97,0
00:00:06.80,89,77.0959014892578,97,0
00:00:06.80,89,77.0959014892578,97,0
00:00:06.81,89,76.9250030517578,97,0
00:00:06.81,89,76.9250030517578,97,0
00:00:06.82,89,76.9250030517578,97,0
00:00:06.82,89,76.9250030517578,97,0
00:00:06.82,89,76.7711944580078,97,0
00:00:06.83,89,76.7711944580078,97,0
00:00:06.83,89,76.7711944580078,97,0
00:00:06.84,89,76.6320266723633,97,0
00:00:06.84,89,76.6320266723633,97,0
00:00:06.84,89,76.6320266723633,97,0
00:00:06.85,89,76.5123977661133,97,0
00:00:06.85,89,76.5123977661133,97,0
00:00:06.86,89,76.5123977661133,97,0
00:00:06.86,89,76.5123977661133,97,0
00:00:06.86,89,76.4147415161133,97,0
00:00:06.87,89,76.4147415161133,97,0
00:00:06.87,89,76.4147415161133,97,0
00:00:06.88,89,76.3341751098633,97,0
00:00:06.88,89,76.3341751098633,97,0
00:00:06.88,89,76.3341751098633,97,0
00:00:06.89,89,76.2731399536133,97,0
00:00:06.89,89,76.2731399536133,97,0
00:00:06.90,89,76.2731399536133,97,0
00:00:06.90,89,76.2731399536133,97,0
00:00:06.90,89,76.2291870117188,97,0
00:00:06.91,89,76.2291870117188,97,0
00:00:06.91,89,76.2291870117188,97,0
00:00:06.92,89,76.2023315429688,97,0
00:00:06.92,89,76.2023315429688,97,0
00:00:06.92,89,76.2023315429688,97,0
00:00:06.93,89,76.1828002929688,97,0
00:00:06.93,89,76.1828002929688,97,0
00:00:06.94,89,76.1828002929688,97,0
00:00:06.94,89,76.1828002929688,97,0
00:00:06.94,89,76.1657104492188,97,0
00:00:06.95,89,76.1657104492188,97,0
00:00:06.95,89,76.1657104492188,97,0
00:00:06.96,89,76.1388549804688,97,0
00:00:06.96,89,76.1388549804688,97,0
00:00:06.96,89,76.1388549804688,97,0
00:00:06.97,89,76.0997924804688,97,0
00:00:06.97,89,76.0997924804688,97,0
00:00:06.98,89,76.0997924804688,97,0
00:00:06.98,89,76.0997924804688,97,0
00:00:06.98,89,76.0436401367188,97,0
00:00:06.99,89,76.0436401367188,97,0
00:00:06.99,89,76.0436401367188,97,0
00:00:07.00,89,75.9826049804688,97,0
00:00:07,89,75.9826049804688,97,0
00:00:07.00,89,75.9826049804688,97,0
00:00:07.01,89,75.9630737304688,97,0
00:00:07.01,89,75.9630737304688,97,0
00:00:07.02,89,75.9630737304688,97,0
00:00:07.02,89,75.9630737304688,97,0
00:00:07.02,89,76.0680541992188,97,0
00:00:07.03,89,76.0680541992188,97,0
00:00:07.03,89,76.0680541992188,97,0
00:00:07.04,89,76.4196243286133,97,0
00:00:07.04,89,76.4196243286133,97,0
00:00:07.04,89,76.4196243286133,97,0
00:00:07.05,89,77.1227569580078,97,0
00:00:07.05,89,77.1227569580078,97,0
00:00:07.06,89,77.1227569580078,97,0
00:00:07.06,89,77.1227569580078,97,0
00:00:07.06,89,78.2287292480469,97,0
00:00:07.07,89,78.2287292480469,97,0
00:00:07.07,89,78.2287292480469,97,0
00:00:07.08,89,79.6911544799805,97,0
00:00:07.08,89,79.6911544799805,97,0
00:00:07.08,89,79.6911544799805,97,0
00:00:07.09,89,81.3806381225586,97,0
00:00:07.09,89,81.3806381225586,97,0
00:00:07.10,89,81.3806381225586,97,0
00:00:07.10,89,81.3806381225586,97,0
00:00:07.10,89,83.1116180419922,97,0
00:00:07.11,89,83.1116180419922,97,0
00:00:07.11,89,83.1116180419922,97,0
00:00:07.12,89,84.6839065551758,97,0
00:00:07.12,89,84.6839065551758,97,0
00:00:07.12,89,84.6839065551758,97,0
00:00:07.13,89,85.9436950683594,97,0
00:00:07.13,89,85.9436950683594,97,0
00:00:07.14,89,85.9436950683594,97,0
00:00:07.14,89,85.9436950683594,97,0
00:00:07.14,89,86.8128509521484,97,0
00:00:07.15,89,86.8128509521484,97,0
00:00:07.15,89,86.8128509521484,97,0
00:00:07.16,89,87.276725769043,97,0
00:00:07.16,89,87.276725769043,97,0
00:00:07.16,89,87.276725769043,97,0
00:00:07.17,89,87.367057800293,97,0
00:00:07.17,89,87.367057800293,97,0
00:00:07.18,89,87.367057800293,97,0
00:00:07.18,89,87.367057800293,97,0
00:00:07.18,89,87.1546478271484,97,0
00:00:07.19,89,87.1546478271484,97,0
00:00:07.19,89,87.1546478271484,97,0
00:00:07.20,89,86.7176284790039,97,0
00:00:07.20,89,86.7176284790039,97,0
00:00:07.20,89,86.7176284790039,97,0
00:00:07.21,89,86.1365661621094,97,0
00:00:07.21,89,86.1365661621094,97,0
00:00:07.22,89,86.1365661621094,97,0
00:00:07.22,89,86.1365661621094,97,0
00:00:07.22,89,85.4676132202148,97,0
00:00:07.23,89,85.4676132202148,97,0
00:00:07.23,89,85.4676132202148,97,0
00:00:07.24,89,84.7449417114258,97,0
00:00:07.24,89,84.7449417114258,97,0
00:00:07.24,89,84.7449417114258,97,0
00:00:07.25,89,84.0003051757813,97,0
00:00:07.25,89,84.0003051757813,97,0
00:00:07.26,89,84.0003051757813,97,0
00:00:07.26,89,84.0003051757813,97,0
00:00:07.26,89,83.2703170776367,97,0
00:00:07.27,89,83.2703170776367,97,0
00:00:07.27,89,83.2703170776367,97,0
00:00:07.28,89,82.5891494750977,97,0
00:00:07.28,89,82.5891494750977,97,0
00:00:07.28,89,82.5891494750977,97,0
00:00:07.29,89,81.9861145019531,97,0
00:00:07.29,89,81.9861145019531,97,0
00:00:07.30,89,81.9861145019531,97,0
00:00:07.30,89,81.9861145019531,97,0
00:00:07.30,89,81.4856185913086,97,0
00:00:07.31,89,81.4856185913086,97,0
00:00:07.31,89,81.4856185913086,97,0
00:00:07.32,87,81.1096343994141,97,0
00:00:07.32,87,81.1096343994141,97,0
00:00:07.32,87,81.1096343994141,97,0
00:00:07.33,87,80.8532867431641,97,0
00:00:07.33,87,80.8532867431641,97,0
00:00:07.34,87,80.8532867431641,97,0
00:00:07.34,87,80.8532867431641,97,0
00:00:07.34,87,80.6945877075195,97,0
00:00:07.35,87,80.6945877075195,97,0
00:00:07.35,87,80.6945877075195,97,0
00:00:07.36,87,80.6115798950195,97,0
00:00:07.36,87,80.6115798950195,97,0
00:00:07.36,87,80.6115798950195,97,0
00:00:07.37,87,80.5725173950195,97,0
00:00:07.37,87,80.5725173950195,97,0
00:00:07.38,87,80.5725173950195,97,0
00:00:07.38,87,80.5725173950195,97,0
00:00:07.38,87,80.5383377075195,97,0
00:00:07.39,87,80.5383377075195,97,0
00:00:07.39,87,80.5383377075195,97,0
00:00:07.40,87,80.4797439575195,97,0
00:00:07.40,87,80.4797439575195,97,0
00:00:07.40,87,80.4797439575195,97,0
00:00:07.41,87,80.3747634887695,97,0
00:00:07.41,87,80.3747634887695,97,0
00:00:07.42,87,80.3747634887695,97,0
00:00:07.42,87,80.3747634887695,97,0
00:00:07.42,87,80.211181640625,97,0
00:00:07.43,87,80.211181640625,97,0
00:00:07.43,87,80.211181640625,97,0
00:00:07.44,87,79.991455078125,97,0
00:00:07.44,87,79.991455078125,97,0
00:00:07.44,87,79.991455078125,97,0
00:00:07.45,87,79.7302169799805,97,0
00:00:07.45,87,79.7302169799805,97,0
00:00:07.46,87,79.7302169799805,97,0
00:00:07.46,87,79.7302169799805,97,0
00:00:07.46,87,79.4323654174805,97,0
00:00:07.47,87,79.4323654174805,97,0
00:00:07.47,87,79.4323654174805,97,0
00:00:07.48,87,79.1198577880859,97,0
00:00:07.48,87,79.1198577880859,97,0
00:00:07.48,87,79.1198577880859,97,0
00:00:07.49,87,78.8024749755859,97,0
00:00:07.49,87,78.8024749755859,97,0
00:00:07.50,87,78.8024749755859,97,0
00:00:07.50,87,78.8024749755859,97,0
00:00:07.50,87,78.4826431274414,97,0
00:00:07.51,87,78.4826431274414,97,0
00:00:07.51,87,78.4826431274414,97,0
00:00:07.52,87,78.1725769042969,97,0
00:00:07.52,87,78.1725769042969,97,0
00:00:07.52,87,78.1725769042969,97,0
00:00:07.53,87,77.8771667480469,97,0
00:00:07.53,87,77.8771667480469,97,0
00:00:07.54,87,77.8771667480469,97,0
00:00:07.54,87,77.8771667480469,97,0
00:00:07.54,87,77.5963973999023,97,0
00:00:07.55,87,77.5963973999023,97,0
00:00:07.55,87,77.5963973999023,97,0
00:00:07.56,87,77.3376083374023,97,0
00:00:07.56,87,77.3376083374023,97,0
00:00:07.56,87,77.3376083374023,97,0
00:00:07.57,87,77.1032257080078,97,0
00:00:07.57,87,77.1032257080078,97,0
00:00:07.58,87,77.1032257080078,97,0
00:00:07.58,87,77.1032257080078,97,0
00:00:07.58,87,76.8883819580078,97,0
00:00:07.59,87,76.8883819580078,97,0
00:00:07.59,87,76.8883819580078,97,0
00:00:07.60,87,76.6979446411133,97,0
00:00:07.60,87,76.6979446411133,97,0
00:00:07.60,87,76.6979446411133,97,0
00:00:07.61,87,76.5270462036133,97,0
00:00:07.61,87,76.5270462036133,97,0
00:00:07.62,87,76.5270462036133,97,0
00:00:07.62,87,76.5270462036133,97,0
00:00:07.62,87,76.3781204223633,97,0
00:00:07.63,87,76.3781204223633,97,0
00:00:07.63,87,76.3781204223633,97,0
00:00:07.64,87,76.2511672973633,97,0
00:00:07.64,87,76.2511672973633,97,0
00:00:07.64,87,76.2511672973633,97,0
00:00:07.65,87,76.1461791992188,97,0
00:00:07.65,87,76.1461791992188,97,0
00:00:07.66,87,76.1461791992188,97,0
00:00:07.66,87,76.1461791992188,97,0
00:00:07.66,87,76.0607299804688,97,0
00:00:07.67,87,76.0607299804688,97,0
00:00:07.67,87,76.0607299804688,97,0
00:00:07.68,87,75.9899291992188,97,0
00:00:07.68,87,75.9899291992188,97,0
00:00:07.68,87,75.9899291992188,97,0
00:00:07.69,87,75.9313354492188,97,0
00:00:07.69,87,75.9313354492188,97,0
00:00:07.70,87,75.9313354492188,97,0
00:00:07.70,87,75.9313354492188,97,0
00:00:07.70,87,75.8825073242188,97,0
00:00:07.71,87,75.8825073242188,97,0
00:00:07.71,87,75.8825073242188,97,0
00:00:07.72,87,75.8410034179688,97,0
00:00:07.72,87,75.8410034179688,97,0
00:00:07.72,87,75.8410034179688,97,0
00:00:07.73,87,75.8019409179688,97,0
00:00:07.73,87,75.8019409179688,97,0
00:00:07.74,87,75.8019409179688,97,0
00:00:07.74,87,75.8019409179688,97,0
00:00:07.74,87,75.7702026367188,97,0
00:00:07.75,87,75.7702026367188,97,0
00:00:07.75,87,75.7702026367188,97,0
00:00:07.76,87,75.7360153198242,97,0
00:00:07.76,87,75.7360153198242,97,0
00:00:07.76,87,75.7360153198242,97,0
00:00:07.77,87,75.6920700073242,97,0
00:00:07.77,87,75.6920700073242,97,0
00:00:07.78,87,75.6920700073242,97,0
00:00:07.78,87,75.6920700073242,97,0
00:00:07.78,87,75.6408004760742,97,0
00:00:07.79,87,75.6408004760742,97,0
00:00:07.79,87,75.6408004760742,97,0
00:00:07.80,87,75.5968551635742,97,0
00:00:07.80,87,75.5968551635742,97,0
00:00:07.80,87,75.5968551635742,97,0
00:00:07.81,87,75.6188278198242,97,0
00:00:07.81,87,75.6188278198242,97,0
00:00:07.82,87,75.6188278198242,97,0
00:00:07.82,87,75.6188278198242,97,0
00:00:07.82,87,75.8190307617188,97,0
00:00:07.83,87,75.8190307617188,97,0
00:00:07.83,87,75.8190307617188,97,0
00:00:07.84,87,76.3268508911133,97,0
00:00:07.84,87,76.3268508911133,97,0
00:00:07.84,87,76.3268508911133,97,0
00:00:07.85,87,77.2423858642578,97,0
00:00:07.85,87,77.2423858642578,97,0
00:00:07.86,87,77.2423858642578,97,0
00:00:07.86,87,77.2423858642578,97,0
00:00:07.86,87,78.5876235961914,97,0
00:00:07.87,87,78.5876235961914,97,0
00:00:07.87,87,78.5876235961914,97,0
00:00:07.88,87,80.2893142700195,97,0
00:00:07.88,87,80.2893142700195,97,0
00:00:07.88,87,80.2893142700195,97,0
00:00:07.89,87,82.1716613769531,97,0
00:00:07.89,87,82.1716613769531,97,0
00:00:07.90,87,82.1716613769531,97,0
00:00:07.90,87,82.1716613769531,97,0
00:00:07.90,87,84.0271606445313,97,0
00:00:07.91,87,84.0271606445313,97,0
00:00:07.91,87,84.0271606445313,97,0
00:00:07.92,87,85.6629257202148,97,0
00:00:07.92,87,85.6629257202148,97,0
00:00:07.92,87,85.6629257202148,97,0
00:00:07.93,87,86.9495697021484,97,0
00:00:07.93,87,86.9495697021484,97,0
00:00:07.94,87,86.9495697021484,97,0
00:00:07.94,87,86.9495697021484,97,0
00:00:07.94,87,87.8260498046875,97,0
00:00:07.95,87,87.8260498046875,97,0
00:00:07.95,87,87.8260498046875,97,0
00:00:07.96,87,88.297248840332,97,0
00:00:07.96,87,88.297248840332,97,0
00:00:07.96,87,88.297248840332,97,0
00:00:07.97,87,88.416877746582,97,0
00:00:07.97,87,88.416877746582,97,0
00:00:07.98,87,88.416877746582,97,0
00:00:07.98,87,88.416877746582,97,0
00:00:07.98,87,88.258186340332,97,0
00:00:07.99,87,88.258186340332,97,0
00:00:07.99,87,88.258186340332,97,0
00:00:08.00,87,87.9041748046875,97,0
00:00:08,87,87.9041748046875,97,0
00:00:08.00,87,87.9041748046875,97,0
00:00:08.01,87,87.423210144043,97,0
00:00:08.01,87,87.423210144043,97,0
00:00:08.02,87,87.423210144043,97,0
00:00:08.02,87,87.423210144043,97,0
00:00:08.02,87,86.8665618896484,97,0
00:00:08.03,87,86.8665618896484,97,0
00:00:08.03,87,86.8665618896484,97,0
00:00:08.04,87,86.2586441040039,97,0
00:00:08.04,87,86.2586441040039,97,0
00:00:08.04,87,86.2586441040039,97,0
00:00:08.05,87,85.6092147827148,97,0
00:00:08.05,87,85.6092147827148,97,0
00:00:08.06,87,85.6092147827148,97,0
00:00:08.06,87,85.6092147827148,97,0
00:00:08.06,87,84.9280548095703,97,0
00:00:08.07,87,84.9280548095703,97,0
00:00:08.07,87,84.9280548095703,97,0
00:00:08.08,87,84.2322387695313,97,0
00:00:08.08,87,84.2322387695313,97,0
00:00:08.08,87,84.2322387695313,97,0
00:00:08.09,87,83.5486373901367,97,0
00:00:08.09,87,83.5486373901367,97,0
00:00:08.10,87,83.5486373901367,97,0
00:00:08.10,87,83.5486373901367,97,0
00:00:08.10,87,82.9089813232422,97,0
00:00:08.11,87,82.9089813232422,97,0
00:00:08.11,87,82.9089813232422,97,0
00:00:08.12,87,82.3474502563477,97,0
00:00:08.12,87,82.3474502563477,97,0
00:00:08.12,87,82.3474502563477,97,0
00:00:08.13,87,81.8933410644531,97,0
00:00:08.13,87,81.8933410644531,97,0
00:00:08.14,87,81.8933410644531,97,0
00:00:08.14,87,81.8933410644531,97,0
00:00:08.14,87,81.5539779663086,97,0
00:00:08.15,87,81.5539779663086,97,0
00:00:08.15,87,81.5539779663086,97,0
00:00:08.16,87,81.3147201538086,97,0
00:00:08.16,87,81.3147201538086,97,0
00:00:08.16,87,81.3147201538086,97,0
00:00:08.17,87,81.1584625244141,97,0
00:00:08.17,87,81.1584625244141,97,0
00:00:08.18,87,81.1584625244141,97,0
00:00:08.18,87,81.1584625244141,97,0
00:00:08.18,87,81.0510406494141,97,0
00:00:08.19,87,81.0510406494141,97,0
00:00:08.19,87,81.0510406494141,97,0
00:00:08.20,87,80.9582672119141,97,0
00:00:08.20,87,80.9582672119141,97,0
00:00:08.20,87,80.9582672119141,97,0
00:00:08.21,87,80.8459625244141,97,0
00:00:08.21,87,80.8459625244141,97,0
00:00:08.22,87,80.8459625244141,97,0
00:00:08.22,87,80.8459625244141,97,0
00:00:08.22,87,80.6945877075195,97,0
00:00:08.23,87,80.6945877075195,97,0
00:00:08.23,87,80.6945877075195,97,0
00:00:08.24,87,80.4919509887695,97,0
00:00:08.24,87,80.4919509887695,97,0
00:00:08.24,87,80.4919509887695,97,0
00:00:08.25,87,80.240478515625,97,0
00:00:08.25,87,80.240478515625,97,0
00:00:08.26,87,80.240478515625,97,0
00:00:08.26,87,80.240478515625,97,0
00:00:08.26,87,79.947509765625,97,0
00:00:08.27,87,79.947509765625,97,0
00:00:08.27,87,79.947509765625,97,0
00:00:08.28,87,79.6252365112305,97,0
00:00:08.28,87,79.6252365112305,97,0
00:00:08.28,87,79.6252365112305,97,0
00:00:08.29,87,79.2907638549805,97,0
00:00:08.29,87,79.2907638549805,97,0
00:00:08.30,87,79.2907638549805,97,0
00:00:08.30,87,79.2907638549805,97,0
00:00:08.30,87,78.9465179443359,97,0
00:00:08.31,87,78.9465179443359,97,0
00:00:08.31,87,78.9465179443359,97,0
00:00:08.32,84,78.6047134399414,97,0
00:00:08.32,84,78.6047134399414,97,0
00:00:08.32,84,78.6047134399414,97,0
00:00:08.33,84,78.2702407836914,97,0
00:00:08.33,84,78.2702407836914,97,0
00:00:08.34,84,78.2702407836914,97,0
00:00:08.34,84,78.2702407836914,97,0
00:00:08.34,84,77.9479675292969,97,0
00:00:08.35,84,77.9479675292969,97,0
00:00:08.35,84,77.9479675292969,97,0
00:00:08.36,84,77.6403427124023,97,0
00:00:08.36,84,77.6403427124023,97,0
00:00:08.36,84,77.6403427124023,97,0
00:00:08.37,84,77.3522567749023,97,0
00:00:08.37,84,77.3522567749023,97,0
00:00:08.38,84,77.3522567749023,97,0
00:00:08.38,84,77.3522567749023,97,0
00:00:08.38,84,77.0812530517578,97,0
00:00:08.39,84,77.0812530517578,97,0
00:00:08.39,84,77.0812530517578,97,0
00:00:08.40,84,76.8273468017578,97,0
00:00:08.40,84,76.8273468017578,97,0
00:00:08.40,84,76.8273468017578,97,0
00:00:08.41,84,76.5954055786133,97,0
00:00:08.41,84,76.5954055786133,97,0
00:00:08.42,84,76.5954055786133,97,0
00:00:08.42,84,76.5954055786133,97,0
00:00:08.42,84,76.3830032348633,97,0
00:00:08.43,84,76.3830032348633,97,0
00:00:08.43,84,76.3830032348633,97,0
00:00:08.44,84,76.1876831054688,97,0
00:00:08.44,84,76.1876831054688,97,0
00:00:08.44,84,76.1876831054688,97,0
00:00:08.45,84,76.0143432617188,97,0
00:00:08.45,84,76.0143432617188,97,0
00:00:08.46,84,76.0143432617188,97,0
00:00:08.46,84,76.0143432617188,97,0
00:00:08.46,84,75.8605346679688,97,0
00:00:08.47,84,75.8605346679688,97,0
00:00:08.47,84,75.8605346679688,97,0
00:00:08.48,84,75.7286911010742,97,0
00:00:08.48,84,75.7286911010742,97,0
00:00:08.48,84,75.7286911010742,97,0
00:00:08.49,84,75.6163864135742,97,0
00:00:08.49,84,75.6163864135742,97,0
00:00:08.50,84,75.6163864135742,97,0
00:00:08.50,84,75.6163864135742,97,0
00:00:08.50,84,75.5260543823242,97,0
00:00:08.51,84,75.5260543823242,97,0
00:00:08.51,84,75.5260543823242,97,0
00:00:08.52,84,75.4552536010742,97,0
00:00:08.52,84,75.4552536010742,97,0
00:00:08.52,84,75.4552536010742,97,0
00:00:08.53,84,75.3991012573242,97,0
00:00:08.53,84,75.3991012573242,97,0
00:00:08.54,84,75.3991012573242,97,0
00:00:08.54,84,75.3991012573242,97,0
00:00:08.54,84,75.3551559448242,97,0
00:00:08.55,84,75.3551559448242,97,0
00:00:08.55,84,75.3551559448242,97,0
00:00:08.56,84,75.3185348510742,97,0
00:00:08.56,84,75.3185348510742,97,0
00:00:08.56,84,75.3185348510742,97,0
00:00:08.57,84,75.2867965698242,97,0
00:00:08.57,84,75.2867965698242,97,0
00:00:08.58,84,75.2867965698242,97,0
00:00:08.58,84,75.2867965698242,97,0
00:00:08.58,84,75.2574996948242,97,0
00:00:08.59,84,75.2574996948242,97,0
00:00:08.59,84,75.2574996948242,97,0
00:00:08.60,84,75.2281951904297,97,0
00:00:08.60,84,75.2281951904297,97,0
00:00:08.60,84,75.2281951904297,97,0
00:00:08.61,84,75.1940155029297,97,0
00:00:08.61,84,75.1940155029297,97,0
00:00:08.62,84,75.1940155029297,97,0
00:00:08.62,84,75.1940155029297,97,0
00:00:08.62,84,75.1622772216797,97,0
00:00:08.63,84,75.1622772216797,97,0
00:00:08.63,84,75.1622772216797,97,0
00:00:08.64,84,75.1598358154297,97,0
00:00:08.64,84,75.1598358154297,97,0
00:00:08.64,84,75.1598358154297,97,0
00:00:08.65,84,75.2648239135742,97,0
00:00:08.65,84,75.2648239135742,97,0
00:00:08.66,84,75.2648239135742,97,0
00:00:08.66,84,75.2648239135742,97,0
00:00:08.66,84,75.5944137573242,97,0
00:00:08.67,84,75.5944137573242,97,0
00:00:08.67,84,75.5944137573242,97,0
00:00:08.68,84,76.2877883911133,97,0
00:00:08.68,84,76.2877883911133,97,0
00:00:08.68,84,76.2877883911133,97,0
00:00:08.69,84,77.4206161499023,97,0
00:00:08.69,84,77.4206161499023,97,0
00:00:08.70,84,77.4206161499023,97,0
00:00:08.70,84,77.4206161499023,97,0
00:00:08.70,84,78.9904632568359,97,0
00:00:08.71,84,78.9904632568359,97,0
00:00:08.71,84,78.9904632568359,97,0
00:00:08.72,84,80.8850250244141,97,0
00:00:08.72,84,80.8850250244141,97,0
00:00:08.72,84,80.8850250244141,97,0
00:00:08.73,84,82.9138641357422,97,0
00:00:08.73,84,82.9138641357422,97,0
00:00:08.74,84,82.9138641357422,97,0
00:00:08.74,84,82.9138641357422,97,0
00:00:08.74,84,84.8499298095703,97,0
00:00:08.75,84,84.8499298095703,97,0
00:00:08.75,84,84.8499298095703,97,0
00:00:08.76,84,86.5125503540039,97,0
00:00:08.76,84,86.5125503540039,97,0
00:00:08.76,84,86.5125503540039,97,0
00:00:08.77,84,87.7869873046875,97,0
00:00:08.77,84,87.7869873046875,97,0
00:00:08.78,84,87.7869873046875,97,0
00:00:08.78,84,87.7869873046875,97,0
00:00:08.78,84,88.634162902832,97,0
00:00:08.79,84,88.634162902832,97,0
00:00:08.79,84,88.634162902832,97,0
00:00:08.80,84,89.0809478759766,97,0
00:00:08.80,84,89.0809478759766,97,0
00:00:08.80,84,89.0809478759766,97,0
00:00:08.81,84,89.1834869384766,97,0
00:00:08.81,84,89.1834869384766,97,0
00:00:08.82,84,89.1834869384766,97,0
00:00:08.82,84,89.1834869384766,97,0
00:00:08.82,84,89.0174713134766,97,0
00:00:08.83,84,89.0174713134766,97,0
00:00:08.83,84,89.0174713134766,97,0
00:00:08.84,84,88.668342590332,97,0
00:00:08.84,84,88.668342590332,97,0
00:00:08.84,84,88.668342590332,97,0
00:00:08.85,84,88.1922607421875,97,0
00:00:08.85,84,88.1922607421875,97,0
00:00:08.86,84,88.1922607421875,97,0
00:00:08.86,84,88.1922607421875,97,0
00:00:08.86,84,87.625846862793,97,0
00:00:08.87,84,87.625846862793,97,0
00:00:08.87,84,87.625846862793,97,0
00:00:08.88,84,86.9861907958984,97,0
00:00:08.88,84,86.9861907958984,97,0
00:00:08.88,84,86.9861907958984,97,0
00:00:08.89,84,86.2854995727539,97,0
00:00:08.89,84,86.2854995727539,97,0
00:00:08.90,84,86.2854995727539,97,0
00:00:08.90,84,86.2854995727539,97,0
00:00:08.90,84,85.5335311889648,97,0
00:00:08.91,84,85.5335311889648,97,0
00:00:08.91,84,85.5335311889648,97,0
00:00:08.92,84,84.7547149658203,97,0
00:00:08.92,84,84.7547149658203,97,0
00:00:08.92,84,84.7547149658203,97,0
00:00:08.93,84,83.9807739257813,97,0
00:00:08.93,84,83.9807739257813,97,0
00:00:08.94,84,83.9807739257813,97,0
00:00:08.94,84,83.9807739257813,97,0
00:00:08.94,84,83.2483367919922,97,0
00:00:08.95,84,83.2483367919922,97,0
00:00:08.95,84,83.2483367919922,97,0
00:00:08.96,84,82.5989151000977,97,0
00:00:08.96,84,82.5989151000977,97,0
00:00:08.96,84,82.5989151000977,97,0
00:00:08.97,84,82.0593566894531,97,0
00:00:08.97,84,82.0593566894531,97,0
00:00:08.98,84,82.0593566894531,97,0
00:00:08.98,84,82.0593566894531,97,0
00:00:08.98,82,81.6321029663086,97,0
00:00:08.99,82,81.6321029663086,97,0
00:00:08.99,82,81.6321029663086,97,0
00:00:09.00,82,81.3171615600586,97,0
00:00:09,82,81.3171615600586,97,0
00:00:09.00,82,81.3171615600586,97,0
00:00:09.01,82,81.0876617431641,97,0
00:00:09.01,82,81.0876617431641,97,0
00:00:09.02,82,81.0876617431641,97,0
00:00:09.02,82,81.0876617431641,97,0
00:00:09.02,82,80.9143218994141,97,0
00:00:09.03,82,80.9143218994141,97,0
00:00:09.03,82,80.9143218994141,97,0
00:00:09.04,82,80.7605133056641,97,0
00:00:09.04,82,80.7605133056641,97,0
00:00:09.04,82,80.7605133056641,97,0
00:00:09.05,82,80.5993728637695,97,0
00:00:09.05,82,80.5993728637695,97,0
00:00:09.06,82,80.5993728637695,97,0
00:00:09.06,82,80.5993728637695,97,0
00:00:09.06,82,80.4089431762695,97,0
00:00:09.07,82,80.4089431762695,97,0
00:00:09.07,82,80.4089431762695,97,0
00:00:09.08,82,80.169677734375,97,0
00:00:09.08,82,80.169677734375,97,0
00:00:09.08,82,80.169677734375,97,0
00:00:09.09,82,79.888916015625,97,0
00:00:09.09,82,79.888916015625,97,0
00:00:09.10,82,79.888916015625,97,0
00:00:09.10,82,79.888916015625,97,0
00:00:09.10,82,79.5715255737305,97,0
00:00:09.11,82,79.5715255737305,97,0
00:00:09.11,82,79.5715255737305,97,0
00:00:09.12,82,79.2199554443359,97,0
00:00:09.12,82,79.2199554443359,97,0
00:00:09.12,82,79.2199554443359,97,0
00:00:09.13,82,78.8537445068359,97,0
00:00:09.13,82,78.8537445068359,97,0
00:00:09.14,82,78.8537445068359,97,0
00:00:09.14,82,78.8537445068359,97,0
00:00:09.14,82,78.4802017211914,97,0
00:00:09.15,82,78.4802017211914,97,0
00:00:09.15,82,78.4802017211914,97,0
00:00:09.16,82,78.1017761230469,97,0
00:00:09.16,82,78.1017761230469,97,0
00:00:09.16,82,78.1017761230469,97,0
00:00:09.17,82,77.7355575561523,97,0
00:00:09.17,82,77.7355575561523,97,0
00:00:09.18,82,77.7355575561523,97,0
00:00:09.18,82,77.7355575561523,97,0
00:00:09.18,82,77.3864364624023,97,0
00:00:09.19,82,77.3864364624023,97,0
00:00:09.19,82,77.3864364624023,97,0
00:00:09.20,82,77.0543975830078,97,0
00:00:09.20,82,77.0543975830078,97,0
00:00:09.20,82,77.0543975830078,97,0
00:00:09.21,82,76.7443313598633,97,0
00:00:09.21,82,76.7443313598633,97,0
00:00:09.22,82,76.7443313598633,97,0
00:00:09.22,82,76.7443313598633,97,0
00:00:09.22,82,76.4513626098633,97,0
00:00:09.23,82,76.4513626098633,97,0
00:00:09.23,82,76.4513626098633,97,0
00:00:09.24,82,76.1803588867188,97,0
00:00:09.24,82,76.1803588867188,97,0
00:00:09.24,82,76.1803588867188,97,0
00:00:09.25,82,75.9288940429688,97,0
00:00:09.25,82,75.9288940429688,97,0
00:00:09.26,82,75.9288940429688,97,0
00:00:09.26,82,75.9288940429688,97,0
00:00:09.26,82,75.7018356323242,97,0
00:00:09.27,82,75.7018356323242,97,0
00:00:09.27,82,75.7018356323242,97,0
00:00:09.28,82,75.5065231323242,97,0
00:00:09.28,82,75.5065231323242,97,0
00:00:09.28,82,75.5065231323242,97,0
00:00:09.29,82,75.3380661010742,97,0
00:00:09.29,82,75.3380661010742,97,0
00:00:09.30,82,75.3380661010742,97,0
00:00:09.30,82,75.3380661010742,97,0
00:00:09.30,82,75.1964569091797,97,0
00:00:09.31,82,75.1964569091797,97,0
00:00:09.31,82,75.1964569091797,97,0
00:00:09.32,82,75.0768280029297,97,0
00:00:09.32,82,75.0768280029297,97,0
00:00:09.32,82,75.0768280029297,97,0
00:00:09.33,82,74.9767303466797,97,0
00:00:09.33,82,74.9767303466797,97,0
00:00:09.34,82,74.9767303466797,97,0
00:00:09.34,82,74.9767303466797,97,0
00:00:09.34,82,74.8912811279297,97,0
00:00:09.35,82,74.8912811279297,97,0
00:00:09.35,82,74.8912811279297,97,0
00:00:09.36,82,74.8180389404297,97,0
00:00:09.36,82,74.8180389404297,97,0
00:00:09.36,82,74.8180389404297,97,0
00:00:09.37,82,74.7570037841797,97,0
00:00:09.37,82,74.7570037841797,97,0
00:00:09.38,82,74.7570037841797,97,0
00:00:09.38,82,74.7570037841797,97,0
00:00:09.38,82,74.7106094360352,97,0
00:00:09.39,82,74.7106094360352,97,0
00:00:09.39,82,74.7106094360352,97,0
00:00:09.40,82,74.6739883422852,97,0
00:00:09.40,82,74.6739883422852,97,0
00:00:09.40,82,74.6739883422852,97,0
00:00:09.41,82,74.6471328735352,97,0
00:00:09.41,82,74.6471328735352,97,0
00:00:09.42,82,74.6471328735352,97,0
00:00:09.42,82,74.6471328735352,97,0
00:00:09.42,82,74.6276016235352,97,0
00:00:09.43,82,74.6276016235352,97,0
00:00:09.43,82,74.6276016235352,97,0
00:00:09.44,82,74.6105117797852,97,0
00:00:09.44,82,74.6105117797852,97,0
00:00:09.44,82,74.6105117797852,97,0
00:00:09.45,82,74.5909805297852,97,0
00:00:09.45,82,74.5909805297852,97,0
00:00:09.46,82,74.5909805297852,97,0
00:00:09.46,82,74.5909805297852,97,0
00:00:09.46,82,74.5690078735352,97,0
00:00:09.47,82,74.5690078735352,97,0
00:00:09.47,82,74.5690078735352,97,0
00:00:09.48,82,74.5470352172852,97,0
00:00:09.48,82,74.5470352172852,97,0
00:00:09.48,82,74.5470352172852,97,0
00:00:09.49,82,74.5275039672852,97,0
00:00:09.49,82,74.5275039672852,97,0
00:00:09.50,82,74.5275039672852,97,0
00:00:09.50,82,74.5275039672852,97,0
00:00:09.50,82,74.5177383422852,97,0
00:00:09.51,82,74.5177383422852,97,0
00:00:09.51,82,74.5177383422852,97,0
00:00:09.52,82,74.5738906860352,97,0
00:00:09.52,82,74.5738906860352,97,0
00:00:09.52,82,74.5738906860352,97,0
00:00:09.53,82,74.8058319091797,97,0
00:00:09.53,82,74.8058319091797,97,0
00:00:09.54,82,74.8058319091797,97,0
00:00:09.54,82,74.8058319091797,97,0
00:00:09.54,82,75.3405075073242,97,0
00:00:09.55,82,75.3405075073242,97,0
00:00:09.55,82,75.3405075073242,97,0
00:00:09.56,82,76.2975540161133,97,0
00:00:09.56,82,76.2975540161133,97,0
00:00:09.56,82,76.2975540161133,97,0
00:00:09.57,82,77.7135848999023,97,0
00:00:09.57,82,77.7135848999023,97,0
00:00:09.58,82,77.7135848999023,97,0
00:00:09.58,82,77.7135848999023,97,0
00:00:09.58,82,79.5275802612305,97,0
00:00:09.59,82,79.5275802612305,97,0
00:00:09.59,82,79.5275802612305,97,0
00:00:09.60,82,81.5661849975586,97,0
00:00:09.60,82,81.5661849975586,97,0
00:00:09.60,82,81.5661849975586,97,0
00:00:09.61,82,83.6121139526367,97,0
00:00:09.61,82,83.6121139526367,97,0
00:00:09.62,82,83.6121139526367,97,0
00:00:09.62,82,83.6121139526367,97,0
00:00:09.62,82,85.4505233764648,97,0
00:00:09.63,82,85.4505233764648,97,0
00:00:09.63,82,85.4505233764648,97,0
00:00:09.64,82,86.9324798583984,97,0
00:00:09.64,82,86.9324798583984,97,0
00:00:09.64,82,86.9324798583984,97,0
00:00:09.65,82,87.9774169921875,97,0
00:00:09.65,82,87.9774169921875,97,0
00:00:09.66,82,87.9774169921875,97,0
00:00:09.66,82,87.9774169921875,97,0
00:00:09.66,82,88.580451965332,97,0
00:00:09.67,82,88.580451965332,97,0
00:00:09.67,82,88.580451965332,97,0
00:00:09.68,82,88.7879791259766,97,0
00:00:09.68,82,88.7879791259766,97,0
00:00:09.68,82,88.7879791259766,97,0
00:00:09.69,82,88.673225402832,97,0
00:00:09.69,82,88.673225402832,97,0
00:00:09.70,82,88.673225402832,97,0
00:00:09.70,82,88.673225402832,97,0
00:00:09.70,82,88.326545715332,97,0
00:00:09.71,82,88.326545715332,97,0
00:00:09.71,82,88.326545715332,97,0
00:00:09.72,82,87.8284912109375,97,0
00:00:09.72,82,87.8284912109375,97,0
00:00:09.72,82,87.8284912109375,97,0
00:00:09.73,82,87.2352142333984,97,0
00:00:09.73,82,87.2352142333984,97,0
00:00:09.74,82,87.2352142333984,97,0
00:00:09.74,82,87.2352142333984,97,0
00:00:09.74,82,86.5735855102539,97,0
00:00:09.75,82,86.5735855102539,97,0
00:00:09.75,82,86.5735855102539,97,0
00:00:09.76,82,85.8655700683594,97,0
00:00:09.76,82,85.8655700683594,97,0
00:00:09.76,82,85.8655700683594,97,0
00:00:09.77,82,85.1209259033203,97,0
00:00:09.77,82,85.1209259033203,97,0
00:00:09.78,82,85.1209259033203,97,0
00:00:09.78,82,85.1209259033203,97,0
00:00:09.78,82,84.3640823364258,97,0
00:00:09.79,82,84.3640823364258,97,0
00:00:09.79,82,84.3640823364258,97,0
00:00:09.80,82,83.6218795776367,97,0
00:00:09.80,82,83.6218795776367,97,0
00:00:09.80,82,83.6218795776367,97,0
00:00:09.81,82,82.9285125732422,97,0
00:00:09.81,82,82.9285125732422,97,0
00:00:09.82,82,82.9285125732422,97,0
00:00:09.82,82,82.9285125732422,97,0
00:00:09.82,82,82.3230361938477,97,0
00:00:09.83,82,82.3230361938477,97,0
00:00:09.83,82,82.3230361938477,97,0
00:00:09.84,82,81.8298645019531,97,0
00:00:09.84,82,81.8298645019531,97,0
00:00:09.84,82,81.8298645019531,97,0
00:00:09.85,82,81.4538803100586,97,0
00:00:09.85,82,81.4538803100586,97,0
00:00:09.86,82,81.4538803100586,97,0
00:00:09.86,82,81.4538803100586,97,0
00:00:09.86,82,81.1902008056641,97,0
00:00:09.87,82,81.1902008056641,97,0
00:00:09.87,82,81.1902008056641,97,0
00:00:09.88,82,81.0119781494141,97,0
00:00:09.88,82,81.0119781494141,97,0
00:00:09.88,82,81.0119781494141,97,0
00:00:09.89,82,80.8874664306641,97,0
00:00:09.89,82,80.8874664306641,97,0
00:00:09.90,82,80.8874664306641,97,0
00:00:09.90,82,80.8874664306641,97,0
00:00:09.90,82,80.7873687744141,97,0
00:00:09.91,82,80.7873687744141,97,0
00:00:09.91,82,80.7873687744141,97,0
00:00:09.92,82,80.6823806762695,97,0
00:00:09.92,82,80.6823806762695,97,0
00:00:09.92,82,80.6823806762695,97,0
00:00:09.93,82,80.5407791137695,97,0
00:00:09.93,82,80.5407791137695,97,0
00:00:09.94,82,80.5407791137695,97,0
00:00:09.94,82,80.5407791137695,97,0
00:00:09.94,82,80.3552322387695,97,0
00:00:09.95,82,80.3552322387695,97,0
00:00:09.95,82,80.3552322387695,97,0
00:00:09.96,82,80.115966796875,97,0
00:00:09.96,82,80.115966796875,97,0
00:00:09.96,82,80.115966796875,97,0
00:00:09.97,82,79.825439453125,97,0
00:00:09.97,82,79.825439453125,97,0
00:00:09.98,82,79.825439453125,97,0
00:00:09.98,82,79.825439453125,97,0
00:00:09.98,80,79.4909591674805,97,0
00:00:09.99,80,79.4909591674805,97,0
00:00:09.99,80,79.4909591674805,97,0
00:00:10.00,80,79.1345062255859,97,0
00:00:10,80,79.1345062255859,97,0
00:00:10.00,80,79.1345062255859,97,0
00:00:10.01,80,78.7756195068359,97,0
00:00:10.01,80,78.7756195068359,97,0
00:00:10.02,80,78.7756195068359,97,0
00:00:10.02,80,78.7756195068359,97,0
00:00:10.02,80,78.4191665649414,97,0
00:00:10.03,80,78.4191665649414,97,0
00:00:10.03,80,78.4191665649414,97,0
00:00:10.04,80,78.0724792480469,97,0
00:00:10.04,80,78.0724792480469,97,0
00:00:10.04,80,78.0724792480469,97,0
00:00:10.05,80,77.7404403686523,97,0
00:00:10.05,80,77.7404403686523,97,0
00:00:10.06,80,77.7404403686523,97,0
00:00:10.06,80,77.7404403686523,97,0
00:00:10.06,80,77.4230575561523,97,0
00:00:10.07,80,77.4230575561523,97,0
00:00:10.07,80,77.4230575561523,97,0
00:00:10.08,80,77.1203155517578,97,0
00:00:10.08,80,77.1203155517578,97,0
00:00:10.08,80,77.1203155517578,97,0
00:00:10.09,80,76.8346710205078,97,0
00:00:10.09,80,76.8346710205078,97,0
00:00:10.10,80,76.8346710205078,97,0
00:00:10.10,80,76.8346710205078,97,0
00:00:10.10,80,76.5612258911133,97,0
00:00:10.11,80,76.5612258911133,97,0
00:00:10.11,80,76.5612258911133,97,0
00:00:10.12,80,76.3122024536133,97,0
00:00:10.12,80,76.3122024536133,97,0
00:00:10.12,80,76.3122024536133,97,0
00:00:10.13,80,76.0875854492188,97,0
00:00:10.13,80,76.0875854492188,97,0
00:00:10.14,80,76.0875854492188,97,0
00:00:10.14,80,76.0875854492188,97,0
00:00:10.14,80,75.8849487304688,97,0
00:00:10.15,80,75.8849487304688,97,0
00:00:10.15,80,75.8849487304688,97,0
00:00:10.16,80,75.7067184448242,97,0
00:00:10.16,80,75.7067184448242,97,0
00:00:10.16,80,75.7067184448242,97,0
00:00:10.17,80,75.5529098510742,97,0
00:00:10.17,80,75.5529098510742,97,0
00:00:10.18,80,75.5529098510742,97,0
00:00:10.18,80,75.5529098510742,97,0
00:00:10.18,80,75.4210739135742,97,0
00:00:10.19,80,75.4210739135742,97,0
00:00:10.19,80,75.4210739135742,97,0
00:00:10.20,80,75.3112106323242,97,0
00:00:10.20,80,75.3112106323242,97,0
00:00:10.20,80,75.3112106323242,97,0
00:00:10.21,80,75.2184295654297,97,0
00:00:10.21,80,75.2184295654297,97,0
00:00:10.22,80,75.2184295654297,97,0
00:00:10.22,80,75.2184295654297,97,0
00:00:10.22,80,75.1403045654297,97,0
00:00:10.23,80,75.1403045654297,97,0
00:00:10.23,80,75.1403045654297,97,0
00:00:10.24,80,75.0719451904297,97,0
00:00:10.24,80,75.0719451904297,97,0
00:00:10.24,80,75.0719451904297,97,0
00:00:10.25,80,75.0157928466797,97,0
00:00:10.25,80,75.0157928466797,97,0
00:00:10.26,80,75.0157928466797,97,0
00:00:10.26,80,75.0157928466797,97,0
00:00:10.26,80,74.9742889404297,97,0
00:00:10.27,80,74.9742889404297,97,0
00:00:10.27,80,74.9742889404297,97,0
00:00:10.28,80,74.9449920654297,97,0
00:00:10.28,80,74.9449920654297,97,0
00:00:10.28,80,74.9449920654297,97,0
00:00:10.29,80,74.9303436279297,97,0
00:00:10.29,80,74.9303436279297,97,0
00:00:10.30,80,74.9303436279297,97,0
00:00:10.30,80,74.9303436279297,97,0
00:00:10.30,80,74.9279022216797,97,0
00:00:10.31,80,74.9279022216797,97,0
00:00:10.31,80,74.9279022216797,97,0
00:00:10.32,80,74.9327850341797,97,0
00:00:10.32,80,74.9327850341797,97,0
00:00:10.32,80,74.9327850341797,97,0
00:00:10.33,80,74.9401092529297,97,0
00:00:10.33,80,74.9401092529297,97,0
00:00:10.34,80,74.9401092529297,97,0
00:00:10.34,80,74.9401092529297,97,0
00:00:10.34,80,74.9474334716797,97,0
00:00:10.35,80,74.9474334716797,97,0
00:00:10.35,80,74.9474334716797,97,0
00:00:10.36,80,74.9547576904297,97,0
00:00:10.36,80,74.9547576904297,97,0
00:00:10.36,80,74.9547576904297,97,0
00:00:10.37,80,74.9523162841797,97,0
00:00:10.37,80,74.9523162841797,97,0
00:00:10.38,80,74.9523162841797,97,0
00:00:10.38,80,74.9523162841797,97,0
00:00:10.38,80,74.9352264404297,97,0
00:00:10.39,80,74.9352264404297,97,0
00:00:10.39,80,74.9352264404297,97,0
00:00:10.40,80,74.9132537841797,97,0
00:00:10.40,80,74.9132537841797,97,0
00:00:10.40,80,74.9132537841797,97,0
00:00:10.41,80,74.9205780029297,97,0
00:00:10.41,80,74.9205780029297,97,0
00:00:10.42,80,74.9205780029297,97,0
00:00:10.42,80,74.9205780029297,97,0
00:00:10.42,80,75.0450897216797,97,0
00:00:10.43,80,75.0450897216797,97,0
00:00:10.43,80,75.0450897216797,97,0
00:00:10.44,80,75.4235153198242,97,0
00:00:10.44,80,75.4235153198242,97,0
00:00:10.44,80,75.4235153198242,97,0
00:00:10.45,80,76.1803588867188,97,0
00:00:10.45,80,76.1803588867188,97,0
00:00:10.46,80,76.1803588867188,97,0
00:00:10.46,80,76.1803588867188,97,0
00:00:10.46,80,77.3962020874023,97,0
00:00:10.47,80,77.3962020874023,97,0
00:00:10.47,80,77.3962020874023,97,0
00:00:10.48,80,79.0466156005859,97,0
00:00:10.48,80,79.0466156005859,97,0
00:00:10.48,80,79.0466156005859,97,0
00:00:10.49,80,81.0070953369141,97,0
00:00:10.49,80,81.0070953369141,97,0
00:00:10.50,80,81.0070953369141,97,0
00:00:10.50,80,81.0070953369141,97,0
00:00:10.50,80,83.0579071044922,97,0
00:00:10.51,80,83.0579071044922,97,0
00:00:10.51,80,83.0579071044922,97,0
00:00:10.52,80,84.9720001220703,97,0
00:00:10.52,80,84.9720001220703,97,0
00:00:10.52,80,84.9720001220703,97,0
00:00:10.53,80,86.5540542602539,97,0
00:00:10.53,80,86.5540542602539,97,0
00:00:10.54,80,86.5540542602539,97,0
00:00:10.54,80,86.5540542602539,97,0
00:00:10.54,80,87.699089050293,97,0
00:00:10.55,80,87.699089050293,97,0
00:00:10.55,80,87.699089050293,97,0
00:00:10.56,80,88.377815246582,97,0
00:00:10.56,80,88.377815246582,97,0
00:00:10.56,80,88.377815246582,97,0
00:00:10.57,80,88.629280090332,97,0
00:00:10.57,80,88.629280090332,97,0
00:00:10.58,80,88.629280090332,97,0
00:00:10.58,80,88.629280090332,97,0
00:00:10.58,80,88.516975402832,97,0
00:00:10.59,80,88.516975402832,97,0
00:00:10.59,80,88.516975402832,97,0
00:00:10.60,80,88.1312255859375,97,0
00:00:10.60,80,88.1312255859375,97,0
00:00:10.60,80,88.1312255859375,97,0
00:00:10.61,80,87.559928894043,97,0
00:00:10.61,80,87.559928894043,97,0
00:00:10.62,80,87.559928894043,97,0
00:00:10.62,80,87.559928894043,97,0
00:00:10.62,80,86.8738861083984,97,0
00:00:10.63,80,86.8738861083984,97,0
00:00:10.63,80,86.8738861083984,97,0
00:00:10.64,80,86.1219177246094,97,0
00:00:10.64,80,86.1219177246094,97,0
00:00:10.64,80,86.1219177246094,97,0
00:00:10.65,78,85.3431015014648,97,0
00:00:10.65,78,85.3431015014648,97,0
00:00:10.66,78,85.3431015014648,97,0
00:00:10.66,78,85.3431015014648,97,0
00:00:10.66,78,84.5593948364258,97,0
00:00:10.67,78,84.5593948364258,97,0
00:00:10.67,78,84.5593948364258,97,0
00:00:10.68,78,83.8001098632813,97,0
00:00:10.68,78,83.8001098632813,97,0
00:00:10.68,78,83.8001098632813,97,0
00:00:10.69,78,83.0920867919922,97,0
00:00:10.69,78,83.0920867919922,97,0
00:00:10.70,78,83.0920867919922,97,0
00:00:10.70,78,83.0920867919922,97,0
00:00:10.70,78,82.4719619750977,97,0
00:00:10.71,78,82.4719619750977,97,0
00:00:10.71,78,82.4719619750977,97,0
00:00:10.72,78,81.9568176269531,97,0
00:00:10.72,78,81.9568176269531,97,0
00:00:10.72,78,81.9568176269531,97,0
00:00:10.73,78,81.5637435913086,97,0
00:00:10.73,78,81.5637435913086,97,0
00:00:10.74,78,81.5637435913086,97,0
00:00:10.74,78,81.5637435913086,97,0
00:00:10.74,78,81.2927474975586,97,0
00:00:10.75,78,81.2927474975586,97,0
00:00:10.75,78,81.2927474975586,97,0
00:00:10.76,78,81.1242828369141,97,0
00:00:10.76,78,81.1242828369141,97,0
00:00:10.76,78,81.1242828369141,97,0
00:00:10.77,78,81.0315093994141,97,0
00:00:10.77,78,81.0315093994141,97,0
00:00:10.78,78,81.0315093994141,97,0
00:00:10.78,78,81.0315093994141,97,0
00:00:10.78,78,80.9753570556641,97,0
00:00:10.79,78,80.9753570556641,97,0
00:00:10.79,78,80.9753570556641,97,0
00:00:10.80,78,80.9216461181641,97,0
00:00:10.80,78,80.9216461181641,97,0
00:00:10.80,78,80.9216461181641,97,0
00:00:10.81,78,80.8410797119141,97,0
00:00:10.81,78,80.8410797119141,97,0
00:00:10.82,78,80.8410797119141,97,0
00:00:10.82,78,80.8410797119141,97,0
00:00:10.82,78,80.7141189575195,97,0
00:00:10.83,78,80.7141189575195,97,0
00:00:10.83,78,80.7141189575195,97,0
00:00:10.84,78,80.5285720825195,97,0
00:00:10.84,78,80.5285720825195,97,0
00:00:10.84,78,80.5285720825195,97,0
00:00:10.85,78,80.2868728637695,97,0
00:00:10.85,78,80.2868728637695,97,0
00:00:10.86,78,80.2868728637695,97,0
00:00:10.86,78,80.2868728637695,97,0
00:00:10.86,78,79.996337890625,97,0
00:00:10.87,78,79.996337890625,97,0
00:00:10.87,78,79.996337890625,97,0
00:00:10.88,78,79.6740646362305,97,0
00:00:10.88,78,79.6740646362305,97,0
00:00:10.88,78,79.6740646362305,97,0
00:00:10.89,78,79.3298263549805,97,0
00:00:10.89,78,79.3298263549805,97,0
00:00:10.90,78,79.3298263549805,97,0
00:00:10.90,78,79.3298263549805,97,0
00:00:10.90,78,78.9782562255859,97,0
00:00:10.91,78,78.9782562255859,97,0
00:00:10.91,78,78.9782562255859,97,0
00:00:10.92,78,78.6266860961914,97,0
00:00:10.92,78,78.6266860961914,97,0
00:00:10.92,78,78.6266860961914,97,0
00:00:10.93,78,78.2873306274414,97,0
00:00:10.93,78,78.2873306274414,97,0
00:00:10.94,78,78.2873306274414,97,0
00:00:10.94,78,78.2873306274414,97,0
00:00:10.94,78,77.9601745605469,97,0
00:00:10.95,78,77.9601745605469,97,0
00:00:10.95,78,77.9601745605469,97,0
00:00:10.96,78,77.6501083374023,97,0
00:00:10.96,78,77.6501083374023,97,0
00:00:10.96,78,77.6501083374023,97,0
00:00:10.97,78,77.3546981811523,97,0
00:00:10.97,78,77.3546981811523,97,0
00:00:10.98,78,77.3546981811523,97,0
00:00:10.98,78,77.3546981811523,97,0
00:00:10.98,78,77.0836944580078,97,0
00:00:10.99,78,77.0836944580078,97,0
00:00:10.99,78,77.0836944580078,97,0
00:00:11.00,78,76.8395538330078,97,0
00:00:11,78,76.8395538330078,97,0
00:00:11.00,78,76.8395538330078,97,0
00:00:11.01,78,76.6247024536133,97,0
00:00:11.01,78,76.6247024536133,97,0
00:00:11.02,78,76.6247024536133,97,0
00:00:11.02,78,76.6247024536133,97,0
00:00:11.02,78,76.4391555786133,97,0
00:00:11.03,78,76.4391555786133,97,0
00:00:11.03,78,76.4391555786133,97,0
00:00:11.04,78,76.2804641723633,97,0
00:00:11.04,78,76.2804641723633,97,0
00:00:11.04,78,76.2804641723633,97,0
00:00:11.05,78,76.1486206054688,97,0
00:00:11.05,78,76.1486206054688,97,0
00:00:11.06,78,76.1486206054688,97,0
00:00:11.06,78,76.1486206054688,97,0
00:00:11.06,78,76.0314331054688,97,0
00:00:11.07,78,76.0314331054688,97,0
00:00:11.07,78,76.0314331054688,97,0
00:00:11.08,78,75.9240112304688,97,0
00:00:11.08,78,75.9240112304688,97,0
00:00:11.08,78,75.9240112304688,97,0
00:00:11.09,78,75.8287963867188,97,0
00:00:11.09,78,75.8287963867188,97,0
00:00:11.10,78,75.8287963867188,97,0
00:00:11.10,78,75.8287963867188,97,0
00:00:11.10,78,75.7457809448242,97,0
00:00:11.11,78,75.7457809448242,97,0
00:00:11.11,78,75.7457809448242,97,0
00:00:11.12,78,75.6798629760742,97,0
00:00:11.12,78,75.6798629760742,97,0
00:00:11.12,78,75.6798629760742,97,0
00:00:11.13,78,75.6285934448242,97,0
00:00:11.13,78,75.6285934448242,97,0
00:00:11.14,78,75.6285934448242,97,0
00:00:11.14,78,75.6285934448242,97,0
00:00:11.14,78,75.5992965698242,97,0
00:00:11.15,78,75.5992965698242,97,0
00:00:11.15,78,75.5992965698242,97,0
00:00:11.16,78,75.5797653198242,97,0
00:00:11.16,78,75.5797653198242,97,0
00:00:11.16,78,75.5797653198242,97,0
00:00:11.17,78,75.5724411010742,97,0
00:00:11.17,78,75.5724411010742,97,0
00:00:11.18,78,75.5724411010742,97,0
00:00:11.18,78,75.5724411010742,97,0
00:00:11.18,78,75.5699996948242,97,0
00:00:11.19,78,75.5699996948242,97,0
00:00:11.19,78,75.5699996948242,97,0
00:00:11.20,78,75.5651168823242,97,0
00:00:11.20,78,75.5651168823242,97,0
00:00:11.20,78,75.5651168823242,97,0
00:00:11.21,78,75.5577926635742,97,0
00:00:11.21,78,75.5577926635742,97,0
00:00:11.22,78,75.5577926635742,97,0
00:00:11.22,78,75.5577926635742,97,0
00:00:11.22,78,75.5455856323242,97,0
00:00:11.23,78,75.5455856323242,97,0
00:00:11.23,78,75.5455856323242,97,0
00:00:11.24,78,75.5260543823242,97,0
00:00:11.24,78,75.5260543823242,97,0
00:00:11.24,78,75.5260543823242,97,0
00:00:11.25,78,75.4967575073242,97,0
00:00:11.25,78,75.4967575073242,97,0
00:00:11.26,78,75.4967575073242,97,0
00:00:11.26,78,75.4967575073242,97,0
00:00:11.26,78,75.4723434448242,97,0
00:00:11.27,78,75.4723434448242,97,0
00:00:11.27,78,75.4723434448242,97,0
00:00:11.28,78,75.4991989135742,97,0
00:00:11.28,78,75.4991989135742,97,0
00:00:11.28,78,75.4991989135742,97,0
00:00:11.29,78,75.6823043823242,97,0
00:00:11.29,78,75.6823043823242,97,0
00:00:11.30,78,75.6823043823242,97,0
00:00:11.30,78,75.6823043823242,97,0
00:00:11.30,78,76.1535034179688,97,0
00:00:11.31,78,76.1535034179688,97,0
00:00:11.31,78,76.1535034179688,97,0
00:00:11.32,78,77.0177764892578,97,0
00:00:11.32,78,77.0177764892578,97,0
00:00:11.32,78,77.0177764892578,97,0
00:00:11.33,78,78.3166275024414,97,0
00:00:11.33,78,78.3166275024414,97,0
00:00:11.34,78,78.3166275024414,97,0
00:00:11.34,78,78.3166275024414,97,0
00:00:11.34,78,79.986572265625,97,0
00:00:11.35,78,79.986572265625,97,0
00:00:11.35,78,79.986572265625,97,0
00:00:11.36,78,81.8567199707031,97,0
00:00:11.36,78,81.8567199707031,97,0
00:00:11.36,78,81.8567199707031,97,0
00:00:11.37,78,83.7073287963867,97,0
00:00:11.37,78,83.7073287963867,97,0
00:00:11.38,78,83.7073287963867,97,0
00:00:11.38,78,83.7073287963867,97,0
00:00:11.38,78,85.3308944702148,97,0
00:00:11.39,78,85.3308944702148,97,0
00:00:11.39,78,85.3308944702148,97,0
00:00:11.40,78,86.5735855102539,97,0
00:00:11.40,78,86.5735855102539,97,0
00:00:11.40,78,86.5735855102539,97,0
00:00:11.41,78,87.379264831543,97,0
00:00:11.41,78,87.379264831543,97,0
00:00:11.42,78,87.379264831543,97,0
00:00:11.42,78,87.379264831543,97,0
00:00:11.42,78,87.7528076171875,97,0
00:00:11.43,78,87.7528076171875,97,0
00:00:11.43,78,87.7528076171875,97,0
00:00:11.44,78,87.7503662109375,97,0
00:00:11.44,78,87.7503662109375,97,0
00:00:11.44,78,87.7503662109375,97,0
00:00:11.45,78,87.445182800293,97,0
00:00:11.45,78,87.445182800293,97,0
00:00:11.46,78,87.445182800293,97,0
00:00:11.46,78,87.445182800293,97,0
00:00:11.46,78,86.9300384521484,97,0
00:00:11.47,78,86.9300384521484,97,0
00:00:11.47,78,86.9300384521484,97,0
00:00:11.48,78,86.2757339477539,97,0
00:00:11.48,78,86.2757339477539,97,0
00:00:11.48,78,86.2757339477539,97,0
00:00:11.49,78,85.5457382202148,97,0
00:00:11.49,78,85.5457382202148,97,0
00:00:11.50,78,85.5457382202148,97,0
00:00:11.50,78,85.5457382202148,97,0
00:00:11.50,78,84.7742462158203,97,0
00:00:11.51,78,84.7742462158203,97,0
00:00:11.51,78,84.7742462158203,97,0
00:00:11.52,78,83.9905395507813,97,0
00:00:11.52,78,83.9905395507813,97,0
00:00:11.52,78,83.9905395507813,97,0
00:00:11.53,78,83.2214813232422,97,0
00:00:11.53,78,83.2214813232422,97,0
00:00:11.54,78,83.2214813232422,97,0
00:00:11.54,78,83.2214813232422,97,0
00:00:11.54,78,82.4963760375977,97,0
00:00:11.55,78,82.4963760375977,97,0
00:00:11.55,78,82.4963760375977,97,0
00:00:11.56,78,81.8493957519531,97,0
00:00:11.56,78,81.8493957519531,97,0
00:00:11.56,78,81.8493957519531,97,0
00:00:11.57,78,81.3073959350586,97,0
00:00:11.57,78,81.3073959350586,97,0
00:00:11.58,78,81.3073959350586,97,0
00:00:11.58,78,81.3073959350586,97,0
00:00:11.58,78,80.8947906494141,97,0
00:00:11.59,78,80.8947906494141,97,0
00:00:11.59,78,80.8947906494141,97,0
00:00:11.60,78,80.6213455200195,97,0
00:00:11.60,78,80.6213455200195,97,0
00:00:11.60,78,80.6213455200195,97,0
00:00:11.61,78,80.4748611450195,97,0
00:00:11.61,78,80.4748611450195,97,0
00:00:11.62,78,80.4748611450195,97,0
00:00:11.62,78,80.4748611450195,97,0
00:00:11.62,78,80.4260330200195,97,0
00:00:11.63,78,80.4260330200195,97,0
00:00:11.63,78,80.4260330200195,97,0
00:00:11.64,78,80.4357986450195,97,0
00:00:11.64,78,80.4357986450195,97,0
00:00:11.64,78,80.4357986450195,97,0
00:00:11.65,76,80.4699783325195,98,0
00:00:11.65,76,80.4699783325195,98,0
00:00:11.66,76,80.4699783325195,98,0
00:00:11.66,76,80.4699783325195,98,0
00:00:11.66,76,80.4846267700195,98,0
00:00:11.67,76,80.4846267700195,98,0
00:00:11.67,76,80.4846267700195,98,0
00:00:11.68,76,80.4528884887695,98,0
00:00:11.68,76,80.4528884887695,98,0
00:00:11.68,76,80.4528884887695,98,0
00:00:11.69,76,80.3503494262695,98,0
00:00:11.69,76,80.3503494262695,98,0
00:00:11.70,76,80.3503494262695,98,0
00:00:11.70,76,80.3503494262695,98,0
00:00:11.70,76,80.177001953125,98,0
00:00:11.71,76,80.177001953125,98,0
00:00:11.71,76,80.177001953125,98,0
00:00:11.72,76,79.937744140625,98,0
00:00:11.72,76,79.937744140625,98,0
00:00:11.72,76,79.937744140625,98,0
00:00:11.73,76,79.6472091674805,98,0
00:00:11.73,76,79.6472091674805,98,0
00:00:11.74,76,79.6472091674805,98,0
00:00:11.74,76,79.6472091674805,98,0
00:00:11.74,76,79.3176193237305,98,0
00:00:11.75,76,79.3176193237305,98,0
00:00:11.75,76,79.3176193237305,98,0
00:00:11.76,76,78.9733734130859,98,0
00:00:11.76,76,78.9733734130859,98,0
00:00:11.76,76,78.9733734130859,98,0
00:00:11.77,76,78.6242446899414,98,0
00:00:11.77,76,78.6242446899414,98,0
00:00:11.78,76,78.6242446899414,98,0
00:00:11.78,76,78.6242446899414,98,0
00:00:11.78,76,78.2873306274414,98,0
00:00:11.79,76,78.2873306274414,98,0
00:00:11.79,76,78.2873306274414,98,0
00:00:11.80,76,77.9699401855469,98,0
00:00:11.80,76,77.9699401855469,98,0
00:00:11.80,76,77.9699401855469,98,0
00:00:11.81,76,77.6818466186523,98,0
00:00:11.81,76,77.6818466186523,98,0
00:00:11.82,76,77.6818466186523,98,0
00:00:11.82,76,77.6818466186523,98,0
00:00:11.82,76,77.4230575561523,98,0
00:00:11.83,76,77.4230575561523,98,0
00:00:11.83,76,77.4230575561523,98,0
00:00:11.84,76,77.1959991455078,98,0
00:00:11.84,76,77.1959991455078,98,0
00:00:11.84,76,77.1959991455078,98,0
00:00:11.85,76,76.9958038330078,98,0
00:00:11.85,76,76.9958038330078,98,0
00:00:11.86,76,76.9958038330078,98,0
00:00:11.86,76,76.9958038330078,98,0
00:00:11.86,76,76.8151397705078,98,0
00:00:11.87,76,76.8151397705078,98,0
00:00:11.87,76,76.8151397705078,98,0
00:00:11.88,76,76.6491165161133,98,0
00:00:11.88,76,76.6491165161133,98,0
00:00:11.88,76,76.6491165161133,98,0
00:00:11.89,76,76.5075149536133,98,0
00:00:11.89,76,76.5075149536133,98,0
00:00:11.90,76,76.5075149536133,98,0
00:00:11.90,76,76.5075149536133,98,0
00:00:11.90,76,76.3830032348633,98,0
00:00:11.91,76,76.3830032348633,98,0
00:00:11.91,76,76.3830032348633,98,0
00:00:11.92,76,76.2731399536133,98,0
00:00:11.92,76,76.2731399536133,98,0
00:00:11.92,76,76.2731399536133,98,0
00:00:11.93,76,76.1803588867188,98,0
00:00:11.93,76,76.1803588867188,98,0
00:00:11.94,76,76.1803588867188,98,0
00:00:11.94,76,76.1803588867188,98,0
00:00:11.94,76,76.0997924804688,98,0
00:00:11.95,76,76.0997924804688,98,0
00:00:11.95,76,76.0997924804688,98,0
00:00:11.96,76,76.0289916992188,98,0
00:00:11.96,76,76.0289916992188,98,0
00:00:11.96,76,76.0289916992188,98,0
00:00:11.97,76,75.9679565429688,98,0
00:00:11.97,76,75.9679565429688,98,0
00:00:11.98,76,75.9679565429688,98,0
00:00:11.98,76,75.9679565429688,98,0
00:00:11.98,76,75.9191284179688,98,0
00:00:11.99,76,75.9191284179688,98,0
00:00:11.99,76,75.9191284179688,98,0
00:00:12.00,76,75.8825073242188,98,0
00:00:12,76,75.8825073242188,98,0
00:00:12.00,76,75.8825073242188,98,0
00:00:12.01,76,75.8532104492188,98,0
00:00:12.01,76,75.8532104492188,98,0
00:00:12.02,76,75.8532104492188,98,0
00:00:12.02,76,75.8532104492188,98,0
00:00:12.02,76,75.8190307617188,98,0
00:00:12.03,76,75.8190307617188,98,0
00:00:12.03,76,75.8190307617188,98,0
00:00:12.04,76,75.7824096679688,98,0
00:00:12.04,76,75.7824096679688,98,0
00:00:12.04,76,75.7824096679688,98,0
00:00:12.05,76,75.7360153198242,98,0
00:00:12.05,76,75.7360153198242,98,0
00:00:12.06,76,75.7360153198242,98,0
00:00:12.06,76,75.7360153198242,98,0
00:00:12.06,76,75.6896286010742,98,0
00:00:12.07,76,75.6896286010742,98,0
00:00:12.07,76,75.6896286010742,98,0
00:00:12.08,76,75.6774215698242,98,0
00:00:12.08,76,75.6774215698242,98,0
00:00:12.08,76,75.6774215698242,98,0
00:00:12.09,76,75.7872924804688,98,0
00:00:12.09,76,75.7872924804688,98,0
00:00:12.10,76,75.7872924804688,98,0
00:00:12.10,76,75.7872924804688,98,0
00:00:12.10,76,76.1510620117188,98,0
00:00:12.11,76,76.1510620117188,98,0
00:00:12.11,76,76.1510620117188,98,0
00:00:12.12,76,76.8981475830078,98,0
00:00:12.12,76,76.8981475830078,98,0
00:00:12.12,76,76.8981475830078,98,0
00:00:12.13,76,78.0968933105469,98,0
00:00:12.13,76,78.0968933105469,98,0
00:00:12.14,76,78.0968933105469,98,0
00:00:12.14,76,78.0968933105469,98,0
00:00:12.14,76,79.7106857299805,98,0
00:00:12.15,76,79.7106857299805,98,0
00:00:12.15,76,79.7106857299805,98,0
00:00:12.16,76,81.6076889038086,98,0
00:00:12.16,76,81.6076889038086,98,0
00:00:12.16,76,81.6076889038086,98,0
00:00:12.17,76,83.5608444213867,98,0
00:00:12.17,76,83.5608444213867,98,0
00:00:12.18,76,83.5608444213867,98,0
00:00:12.18,76,83.5608444213867,98,0
00:00:12.18,76,85.3455429077148,98,0
00:00:12.19,76,85.3455429077148,98,0
00:00:12.19,76,85.3455429077148,98,0
00:00:12.20,76,86.7859954833984,98,0
00:00:12.20,76,86.7859954833984,98,0
00:00:12.20,76,86.7859954833984,98,0
00:00:12.21,76,87.7991943359375,98,0
00:00:12.21,76,87.7991943359375,98,0
00:00:12.22,76,87.7991943359375,98,0
00:00:12.22,76,87.7991943359375,98,0
00:00:12.22,76,88.370491027832,98,0
00:00:12.23,76,88.370491027832,98,0
00:00:12.23,76,88.370491027832,98,0
00:00:12.24,76,88.551155090332,98,0
00:00:12.24,76,88.551155090332,98,0
00:00:12.24,76,88.551155090332,98,0
00:00:12.25,76,88.409553527832,98,0
00:00:12.25,76,88.409553527832,98,0
00:00:12.26,76,88.409553527832,98,0
00:00:12.26,76,88.409553527832,98,0
00:00:12.26,76,88.0286865234375,98,0
00:00:12.27,76,88.0286865234375,98,0
00:00:12.27,76,88.0286865234375,98,0
00:00:12.28,76,87.494010925293,98,0
00:00:12.28,76,87.494010925293,98,0
00:00:12.28,76,87.494010925293,98,0
00:00:12.29,76,86.8763275146484,98,0
00:00:12.29,76,86.8763275146484,98,0
00:00:12.30,76,86.8763275146484,98,0
00:00:12.30,76,86.8763275146484,98,0
00:00:12.30,76,86.2146911621094,98,0
00:00:12.31,76,86.2146911621094,98,0
00:00:12.31,76,86.2146911621094,98,0
00:00:12.32,75,85.5335311889648,97,0
00:00:12.32,75,85.5335311889648,97,0
00:00:12.32,75,85.5335311889648,97,0
00:00:12.33,75,84.8426055908203,97,0
00:00:12.33,75,84.8426055908203,97,0
00:00:12.34,75,84.8426055908203,97,0
00:00:12.34,75,84.8426055908203,97,0
00:00:12.34,75,84.1541137695313,97,0
00:00:12.35,75,84.1541137695313,97,0
00:00:12.35,75,84.1541137695313,97,0
00:00:12.36,75,83.4802780151367,97,0
00:00:12.36,75,83.4802780151367,97,0
00:00:12.36,75,83.4802780151367,97,0
00:00:12.37,75,82.8357391357422,97,0
00:00:12.37,75,82.8357391357422,97,0
00:00:12.38,75,82.8357391357422,97,0
00:00:12.38,75,82.8357391357422,97,0
00:00:12.38,75,82.2571182250977,97,0
00:00:12.39,75,82.2571182250977,97,0
00:00:12.39,75,82.2571182250977,97,0
00:00:12.40,75,81.7688293457031,97,0
00:00:12.40,75,81.7688293457031,97,0
00:00:12.40,75,81.7688293457031,97,0
00:00:12.41,75,81.3928451538086,97,0
00:00:12.41,75,81.3928451538086,97,0
00:00:12.42,75,81.3928451538086,97,0
00:00:12.42,75,81.3928451538086,97,0
00:00:12.42,75,81.1242828369141,97,0
00:00:12.43,75,81.1242828369141,97,0
00:00:12.43,75,81.1242828369141,97,0
00:00:12.44,75,80.9533843994141,97,0
00:00:12.44,75,80.9533843994141,97,0
00:00:12.44,75,80.9533843994141,97,0
00:00:12.45,75,80.8557281494141,97,0
00:00:12.45,75,80.8557281494141,97,0
00:00:12.46,75,80.8557281494141,97,0
00:00:12.46,75,80.8557281494141,97,0
00:00:12.46,75,80.7946929931641,97,0
00:00:12.47,75,80.7946929931641,97,0
00:00:12.47,75,80.7946929931641,97,0
00:00:12.48,75,80.7385330200195,97,0
00:00:12.48,75,80.7385330200195,97,0
00:00:12.48,75,80.7385330200195,97,0
00:00:12.49,75,80.6604080200195,97,0
00:00:12.49,75,80.6604080200195,97,0
00:00:12.50,75,80.6604080200195,97,0
00:00:12.50,75,80.6604080200195,97,0
00:00:12.50,75,80.5383377075195,97,0
00:00:12.51,75,80.5383377075195,97,0
00:00:12.51,75,80.5383377075195,97,0
00:00:12.52,75,80.3674392700195,97,0
00:00:12.52,75,80.3674392700195,97,0
00:00:12.52,75,80.3674392700195,97,0
00:00:12.53,75,80.155029296875,97,0
00:00:12.53,75,80.155029296875,97,0
00:00:12.54,75,80.155029296875,97,0
00:00:12.54,75,80.155029296875,97,0
00:00:12.54,75,79.898681640625,97,0
00:00:12.55,75,79.898681640625,97,0
00:00:12.55,75,79.898681640625,97,0
00:00:12.56,75,79.6130294799805,97,0
00:00:12.56,75,79.6130294799805,97,0
00:00:12.56,75,79.6130294799805,97,0
00:00:12.57,75,79.3127365112305,97,0
00:00:12.57,75,79.3127365112305,97,0
00:00:12.58,75,79.3127365112305,97,0
00:00:12.58,75,79.3127365112305,97,0
00:00:12.58,75,79.0075531005859,97,0
00:00:12.59,75,79.0075531005859,97,0
00:00:12.59,75,79.0075531005859,97,0
00:00:12.60,75,78.7048110961914,97,0
00:00:12.60,75,78.7048110961914,97,0
00:00:12.60,75,78.7048110961914,97,0
00:00:12.61,75,78.4191665649414,97,0
00:00:12.61,75,78.4191665649414,97,0
00:00:12.62,75,78.4191665649414,97,0
00:00:12.62,75,78.4191665649414,97,0
00:00:12.62,75,78.1481628417969,97,0
00:00:12.63,75,78.1481628417969,97,0
00:00:12.63,75,78.1481628417969,97,0
00:00:12.64,75,77.8942565917969,97,0
00:00:12.64,75,77.8942565917969,97,0
00:00:12.64,75,77.8942565917969,97,0
00:00:12.65,75,77.6598739624023,97,0
00:00:12.65,75,77.6598739624023,97,0
00:00:12.66,75,77.6598739624023,97,0
00:00:12.66,75,77.6598739624023,97,0
00:00:12.66,75,77.4425888061523,97,0
00:00:12.67,75,77.4425888061523,97,0
00:00:12.67,75,77.4425888061523,97,0
00:00:12.68,75,77.2399444580078,97,0
00:00:12.68,75,77.2399444580078,97,0
00:00:12.68,75,77.2399444580078,97,0
00:00:12.69,75,77.0592803955078,97,0
00:00:12.69,75,77.0592803955078,97,0
00:00:12.70,75,77.0592803955078,97,0
00:00:12.70,75,77.0592803955078,97,0
00:00:12.70,75,76.8932647705078,97,0
00:00:12.71,75,76.8932647705078,97,0
00:00:12.71,75,76.8932647705078,97,0
00:00:12.72,75,76.7492141723633,97,0
00:00:12.72,75,76.7492141723633,97,0
00:00:12.72,75,76.7492141723633,97,0
00:00:12.73,75,76.6271438598633,97,0
00:00:12.73,75,76.6271438598633,97,0
00:00:12.74,75,76.6271438598633,97,0
00:00:12.74,75,76.6271438598633,97,0
00:00:12.74,75,76.5246047973633,97,0
00:00:12.75,75,76.5246047973633,97,0
00:00:12.75,75,76.5246047973633,97,0
00:00:12.76,75,76.4367141723633,97,0
00:00:12.76,75,76.4367141723633,97,0
00:00:12.76,75,76.4367141723633,97,0
00:00:12.77,75,76.3659133911133,97,0
00:00:12.77,75,76.3659133911133,97,0
00:00:12.78,75,76.3659133911133,97,0
00:00:12.78,75,76.3659133911133,97,0
00:00:12.78,75,76.3073196411133,97,0
00:00:12.79,75,76.3073196411133,97,0
00:00:12.79,75,76.3073196411133,97,0
00:00:12.80,75,76.2511672973633,97,0
00:00:12.80,75,76.2511672973633,97,0
00:00:12.80,75,76.2511672973633,97,0
00:00:12.81,75,76.1925659179688,97,0
00:00:12.81,75,76.1925659179688,97,0
00:00:12.82,75,76.1925659179688,97,0
00:00:12.82,75,76.1925659179688,97,0
00:00:12.82,75,76.1339721679688,97,0
00:00:12.83,75,76.1339721679688,97,0
00:00:12.83,75,76.1339721679688,97,0
00:00:12.84,75,76.0704956054688,97,0
00:00:12.84,75,76.0704956054688,97,0
00:00:12.84,75,76.0704956054688,97,0
00:00:12.85,75,76.0094604492188,97,0
00:00:12.85,75,76.0094604492188,97,0
00:00:12.86,75,76.0094604492188,97,0
00:00:12.86,75,76.0094604492188,97,0
00:00:12.86,75,75.9850463867188,97,0
00:00:12.87,75,75.9850463867188,97,0
00:00:12.87,75,75.9850463867188,97,0
00:00:12.88,75,76.0949096679688,97,0
00:00:12.88,75,76.0949096679688,97,0
00:00:12.88,75,76.0949096679688,97,0
00:00:12.89,75,76.4684524536133,97,0
00:00:12.89,75,76.4684524536133,97,0
00:00:12.90,75,76.4684524536133,97,0
00:00:12.90,75,76.4684524536133,97,0
00:00:12.90,75,77.2375030517578,97,0
00:00:12.91,75,77.2375030517578,97,0
00:00:12.91,75,77.2375030517578,97,0
00:00:12.92,75,78.4582290649414,97,0
00:00:12.92,75,78.4582290649414,97,0
00:00:12.92,75,78.4582290649414,97,0
00:00:12.93,75,80.091552734375,97,0
00:00:12.93,75,80.091552734375,97,0
00:00:12.94,75,80.091552734375,97,0
00:00:12.94,75,80.091552734375,97,0
00:00:12.94,75,81.9836730957031,97,0
00:00:12.95,75,81.9836730957031,97,0
00:00:12.95,75,81.9836730957031,97,0
00:00:12.96,75,83.9172973632813,97,0
00:00:12.96,75,83.9172973632813,97,0
00:00:12.96,75,83.9172973632813,97,0
00:00:12.97,75,85.6702499389648,97,0
00:00:12.97,75,85.6702499389648,97,0
00:00:12.98,75,85.6702499389648,97,0
00:00:12.98,75,85.6702499389648,97,0
00:00:12.98,75,87.0789642333984,97,0
00:00:12.99,75,87.0789642333984,97,0
00:00:12.99,75,87.0789642333984,97,0
00:00:13.00,75,88.0653076171875,97,0
00:00:13,75,88.0653076171875,97,0
