Elapsed Time,Heart Rate PulseOx1,PPG PulseOx1,SpO2 PulseOx1,BioRadio Event,
00:00:00,80,76.8200225830078,97,0,
00:00:00.004,80,76.8200225830078,97,0,
00:00:00.008,80,76.7418899536133,97,0,
00:00:00.012,80,76.7418899536133,97,0,
00:00:00.016,80,76.7418899536133,97,0,
00:00:00.02,80,76.7418899536133,97,0,
00:00:00.024,80,76.6662063598633,97,0,
00:00:00.028,80,76.6662063598633,97,0,
00:00:00.032,80,76.6662063598633,97,0,
00:00:00.036,80,76.5831985473633,97,0,
00:00:00.04,80,76.5831985473633,97,0,
00:00:00.044,80,76.5831985473633,97,0,
00:00:00.048,80,76.5099563598633,97,0,
00:00:00.052,80,76.5099563598633,97,0,
00:00:00.056,80,76.5099563598633,97,0,
00:00:00.06,80,76.5099563598633,97,0,
00:00:00.064,80,76.4782180786133,97,0,
00:00:00.068,80,76.4782180786133,97,0,
00:00:00.072,80,76.4782180786133,97,0,
00:00:00.076,80,76.5612258911133,97,0,
00:00:00.08,80,76.5612258911133,97,0,
00:00:00.084,80,76.5612258911133,97,0,
00:00:00.088,80,76.8590850830078,97,0,
00:00:00.092,80,76.8590850830078,97,0,
00:00:00.096,80,76.8590850830078,97,0,
00:00:00.1,80,76.8590850830078,97,0,
00:00:00.104,80,77.4572372436523,97,0,
00:00:00.108,80,77.4572372436523,97,0,
00:00:00.112,80,77.4572372436523,97,0,
00:00:00.116,80,78.3825454711914,97,0,
00:00:00.12,80,78.3825454711914,97,0,
00:00:00.124,80,78.3825454711914,97,0,
00:00:00.128,80,79.5788497924805,97,0,
00:00:00.132,80,79.5788497924805,97,0,
00:00:00.136,80,79.5788497924805,97,0,
00:00:00.14,80,79.5788497924805,97,0,
00:00:00.144,80,80.9240875244141,97,0,
00:00:00.148,80,80.9240875244141,97,0,
00:00:00.152,80,80.9240875244141,97,0,
00:00:00.156,80,82.2449035644531,97,0,
00:00:00.16,80,82.2449035644531,97,0,
00:00:00.164,80,82.2449035644531,97,0,
00:00:00.168,80,83.3777389526367,97,0,
00:00:00.172,80,83.3777389526367,97,0,
00:00:00.176,80,83.3777389526367,97,0,
00:00:00.18,80,83.3777389526367,97,0,
00:00:00.184,80,84.2151489257813,97,0,
00:00:00.188,80,84.2151489257813,97,0,
00:00:00.192,80,84.2151489257813,97,0,
00:00:00.196,80,84.7132034301758,97,0,
00:00:00.2,80,84.7132034301758,97,0,
00:00:00.204,80,84.7132034301758,97,0,
00:00:00.208,80,84.7132034301758,97,0,
00:00:00.212,80,84.8841094970703,97,0,
00:00:00.216,80,84.8841094970703,97,0,
00:00:00.22,80,84.8841094970703,97,0,
00:00:00.224,80,84.7644805908203,97,0,
00:00:00.228,80,84.7644805908203,97,0,
00:00:00.232,80,84.7644805908203,97,0,
00:00:00.236,80,84.4226760864258,97,0,
00:00:00.24,80,84.4226760864258,97,0,
00:00:00.244,80,84.4226760864258,97,0,
00:00:00.248,80,84.4226760864258,97,0,
00:00:00.252,80,83.9270629882813,97,0,
00:00:00.256,80,83.9270629882813,97,0,
00:00:00.26,80,83.9270629882813,97,0,
00:00:00.264,80,83.3411178588867,97,0,
00:00:00.268,80,83.3411178588867,97,0,
00:00:00.272,80,83.3411178588867,97,0,
00:00:00.276,80,82.7063369750977,97,0,
00:00:00.28,80,82.7063369750977,97,0,
00:00:00.284,80,82.7063369750977,97,0,
00:00:00.288,80,82.7063369750977,97,0,
00:00:00.292,80,82.0691223144531,97,0,
00:00:00.296,80,82.0691223144531,97,0,
00:00:00.3,80,82.0691223144531,97,0,
00:00:00.304,80,81.4612045288086,97,0,
00:00:00.308,80,81.4612045288086,97,0,
00:00:00.312,80,81.4612045288086,97,0,
00:00:00.316,81,80.9192047119141,97,0,
00:00:00.32,81,80.9192047119141,97,0,
00:00:00.324,81,80.9192047119141,97,0,
00:00:00.328,81,80.4626541137695,97,0,
00:00:00.332,81,80.4626541137695,97,0,
00:00:00.336,81,80.4626541137695,97,0,
00:00:00.34,81,80.4626541137695,97,0,
00:00:00.344,81,80.113525390625,97,0,
00:00:00.348,81,80.113525390625,97,0,
00:00:00.352,81,80.113525390625,97,0,
00:00:00.356,81,79.879150390625,97,0,
00:00:00.36,81,79.879150390625,97,0,
00:00:00.364,81,79.879150390625,97,0,
00:00:00.368,81,79.879150390625,97,0,
00:00:00.372,81,79.761962890625,97,0,
00:00:00.376,81,79.761962890625,97,0,
00:00:00.38,81,79.761962890625,97,0,
00:00:00.384,81,79.7424240112305,97,0,
00:00:00.388,81,79.7424240112305,97,0,
00:00:00.392,81,79.7424240112305,97,0,
00:00:00.396,81,79.788818359375,97,0,
00:00:00.4,81,79.788818359375,97,0,
00:00:00.404,81,79.788818359375,97,0,
00:00:00.408,81,79.874267578125,97,0,
00:00:00.412,81,79.874267578125,97,0,
00:00:00.416,81,79.874267578125,97,0,
00:00:00.42,81,79.874267578125,97,0,
00:00:00.424,81,79.962158203125,97,0,
00:00:00.428,81,79.962158203125,97,0,
00:00:00.432,81,79.962158203125,97,0,
00:00:00.436,81,80.018310546875,97,0,
00:00:00.44,81,80.018310546875,97,0,
00:00:00.444,81,80.018310546875,97,0,
00:00:00.448,81,80.023193359375,97,0,
00:00:00.452,81,80.023193359375,97,0,
00:00:00.456,81,80.023193359375,97,0,
00:00:00.46,81,80.023193359375,97,0,
00:00:00.464,81,79.976806640625,97,0,
00:00:00.468,81,79.976806640625,97,0,
00:00:00.472,81,79.976806640625,97,0,
00:00:00.476,81,79.879150390625,97,0,
00:00:00.48,81,79.879150390625,97,0,
00:00:00.484,81,79.879150390625,97,0,
00:00:00.488,81,79.7375411987305,97,0,
00:00:00.492,81,79.7375411987305,97,0,
00:00:00.496,81,79.7375411987305,97,0,
00:00:00.5,81,79.7375411987305,97,0,
00:00:00.504,81,79.5666427612305,97,0,
00:00:00.508,81,79.5666427612305,97,0,
00:00:00.512,81,79.5666427612305,97,0,
00:00:00.516,81,79.3737716674805,97,0,
00:00:00.52,81,79.3737716674805,97,0,
00:00:00.524,81,79.3737716674805,97,0,
00:00:00.528,81,79.1760101318359,97,0,
00:00:00.532,81,79.1760101318359,97,0,
00:00:00.536,81,79.1760101318359,97,0,
00:00:00.54,81,79.1760101318359,97,0,
00:00:00.544,81,78.9782562255859,97,0,
00:00:00.548,81,78.9782562255859,97,0,
00:00:00.552,81,78.9782562255859,97,0,
00:00:00.556,81,78.7805023193359,97,0,
00:00:00.56,81,78.7805023193359,97,0,
00:00:00.564,81,78.7805023193359,97,0,
00:00:00.568,81,78.7805023193359,97,0,
00:00:00.572,81,78.5900650024414,97,0,
00:00:00.576,81,78.5900650024414,97,0,
00:00:00.58,81,78.5900650024414,97,0,
00:00:00.584,81,78.4069595336914,97,0,
00:00:00.588,81,78.4069595336914,97,0,
00:00:00.592,81,78.4069595336914,97,0,
00:00:00.596,81,78.2287292480469,97,0,
00:00:00.6,81,78.2287292480469,97,0,
00:00:00.604,81,78.2287292480469,97,0,
00:00:00.608,81,78.0627136230469,97,0,
00:00:00.612,81,78.0627136230469,97,0,
00:00:00.616,81,78.0627136230469,97,0,
00:00:00.62,81,78.0627136230469,97,0,
00:00:00.624,81,77.9113464355469,97,0,
00:00:00.628,81,77.9113464355469,97,0,
00:00:00.632,81,77.9113464355469,97,0,
00:00:00.636,81,77.7819519042969,97,0,
00:00:00.64,81,77.7819519042969,97,0,
00:00:00.644,81,77.7819519042969,97,0,
00:00:00.648,81,77.6818466186523,97,0,
00:00:00.652,81,77.6818466186523,97,0,
00:00:00.656,81,77.6818466186523,97,0,
00:00:00.66,81,77.6818466186523,97,0,
00:00:00.664,81,77.6086044311523,97,0,
00:00:00.668,81,77.6086044311523,97,0,
00:00:00.672,81,77.6086044311523,97,0,
00:00:00.676,81,77.5622177124023,97,0,
00:00:00.68,81,77.5622177124023,97,0,
00:00:00.684,81,77.5622177124023,97,0,
00:00:00.688,81,77.5378036499023,97,0,
00:00:00.692,81,77.5378036499023,97,0,
00:00:00.696,81,77.5378036499023,97,0,
00:00:00.7,81,77.5378036499023,97,0,
00:00:00.704,81,77.5353622436523,97,0,
00:00:00.708,81,77.5353622436523,97,0,
00:00:00.712,81,77.5353622436523,97,0,
00:00:00.716,81,77.5329208374023,97,0,
00:00:00.72,81,77.5329208374023,97,0,
00:00:00.724,81,77.5329208374023,97,0,
00:00:00.728,81,77.5231552124023,97,0,
00:00:00.732,81,77.5231552124023,97,0,
00:00:00.736,81,77.5231552124023,97,0,
00:00:00.74,81,77.5231552124023,97,0,
00:00:00.744,81,77.4987411499023,97,0,
00:00:00.748,81,77.4987411499023,97,0,
00:00:00.752,81,77.4987411499023,97,0,
00:00:00.756,81,77.4816513061523,97,0,
00:00:00.76,81,77.4816513061523,97,0,
00:00:00.764,81,77.4816513061523,97,0,
00:00:00.768,81,77.5182723999023,97,0,
00:00:00.772,81,77.5182723999023,97,0,
00:00:00.776,81,77.5182723999023,97,0,
00:00:00.78,81,77.5182723999023,97,0,
00:00:00.784,81,77.6916122436523,97,0,
00:00:00.788,81,77.6916122436523,97,0,
00:00:00.792,81,77.6916122436523,97,0,
00:00:00.796,81,78.1042175292969,97,0,
00:00:00.8,81,78.1042175292969,97,0,
00:00:00.804,81,78.1042175292969,97,0,
00:00:00.808,81,78.8146820068359,97,0,
00:00:00.812,81,78.8146820068359,97,0,
00:00:00.816,81,78.8146820068359,97,0,
00:00:00.82,81,78.8146820068359,97,0,
00:00:00.824,81,79.815673828125,97,0,
00:00:00.828,81,79.815673828125,97,0,
00:00:00.832,81,79.815673828125,97,0,
00:00:00.836,81,81.0339508056641,97,0,
00:00:00.84,81,81.0339508056641,97,0,
00:00:00.844,81,81.0339508056641,97,0,
00:00:00.848,81,82.3230361938477,97,0,
00:00:00.852,81,82.3230361938477,97,0,
00:00:00.856,81,82.3230361938477,97,0,
00:00:00.86,81,82.3230361938477,97,0,
00:00:00.864,81,83.5217819213867,97,0,
00:00:00.868,81,83.5217819213867,97,0,
00:00:00.872,81,83.5217819213867,97,0,
00:00:00.876,81,84.4861526489258,97,0,
00:00:00.88,81,84.4861526489258,97,0,
00:00:00.884,81,84.4861526489258,97,0,
00:00:00.888,81,85.1428985595703,97,0,
00:00:00.892,81,85.1428985595703,97,0,
00:00:00.896,81,85.1428985595703,97,0,
00:00:00.9,81,85.1428985595703,97,0,
00:00:00.904,81,85.4773788452148,97,0,
00:00:00.908,81,85.4773788452148,97,0,
00:00:00.912,81,85.4773788452148,97,0,
00:00:00.916,81,85.5115585327148,97,0,
00:00:00.92,81,85.5115585327148,97,0,
00:00:00.924,81,85.5115585327148,97,0,
00:00:00.928,81,85.2991561889648,97,0,
00:00:00.932,81,85.2991561889648,97,0,
00:00:00.936,81,85.2991561889648,97,0,
00:00:00.94,81,85.2991561889648,97,0,
00:00:00.944,81,84.9011993408203,97,0,
00:00:00.948,81,84.9011993408203,97,0,
00:00:00.952,81,84.9011993408203,97,0,
00:00:00.956,81,84.3738479614258,97,0,
00:00:00.96,81,84.3738479614258,97,0,
00:00:00.964,81,84.3738479614258,97,0,
00:00:00.968,81,83.7610473632813,97,0,
00:00:00.972,81,83.7610473632813,97,0,
00:00:00.976,81,83.7610473632813,97,0,
00:00:00.98,81,83.7610473632813,97,0,
00:00:00.984,81,83.1018524169922,97,0,
00:00:00.988,81,83.1018524169922,97,0,
00:00:00.992,81,83.1018524169922,97,0,
00:00:00.996,81,82.4328994750977,97,0,
00:00:01,81,82.4328994750977,97,0,
00:00:01.004,81,82.4328994750977,97,0,
00:00:01.008,81,81.7883605957031,97,0,
00:00:01.012,81,81.7883605957031,97,0,
00:00:01.016,81,81.7883605957031,97,0,
00:00:01.02,81,81.7883605957031,97,0,
00:00:01.024,81,81.1999664306641,97,0,
00:00:01.028,81,81.1999664306641,97,0,
00:00:01.032,81,81.1999664306641,97,0,
00:00:01.036,81,80.6970291137695,97,0,
00:00:01.04,81,80.6970291137695,97,0,
00:00:01.044,81,80.6970291137695,97,0,
00:00:01.048,81,80.2990798950195,97,0,
00:00:01.052,81,80.2990798950195,97,0,
00:00:01.056,81,80.2990798950195,97,0,
00:00:01.06,81,80.2990798950195,97,0,
00:00:01.064,81,80.013427734375,97,0,
00:00:01.068,81,80.013427734375,97,0,
00:00:01.072,81,80.013427734375,97,0,
00:00:01.076,81,79.840087890625,97,0,
00:00:01.08,81,79.840087890625,97,0,
00:00:01.084,81,79.840087890625,97,0,
00:00:01.088,81,79.761962890625,97,0,
00:00:01.092,81,79.761962890625,97,0,
00:00:01.096,81,79.761962890625,97,0,
00:00:01.1,81,79.761962890625,97,0,
00:00:01.104,81,79.7473068237305,97,0,
00:00:01.108,81,79.7473068237305,97,0,
00:00:01.112,81,79.7473068237305,97,0,
00:00:01.116,81,79.759521484375,97,0,
00:00:01.12,81,79.759521484375,97,0,
00:00:01.124,81,79.759521484375,97,0,
00:00:01.128,81,79.764404296875,97,0,
00:00:01.132,81,79.764404296875,97,0,
00:00:01.136,81,79.764404296875,97,0,
00:00:01.14,81,79.764404296875,97,0,
00:00:01.144,81,79.7375411987305,97,0,
00:00:01.148,81,79.7375411987305,97,0,
00:00:01.152,81,79.7375411987305,97,0,
00:00:01.156,81,79.6642990112305,97,0,
00:00:01.16,81,79.6642990112305,97,0,
00:00:01.164,81,79.6642990112305,97,0,
00:00:01.168,81,79.5446701049805,97,0,
00:00:01.172,81,79.5446701049805,97,0,
00:00:01.176,81,79.5446701049805,97,0,
00:00:01.18,81,79.5446701049805,97,0,
00:00:01.184,81,79.3884201049805,97,0,
00:00:01.188,81,79.3884201049805,97,0,
00:00:01.192,81,79.3884201049805,97,0,
00:00:01.196,81,79.2101898193359,97,0,
00:00:01.2,81,79.2101898193359,97,0,
00:00:01.204,81,79.2101898193359,97,0,
00:00:01.208,81,79.2101898193359,97,0,
00:00:01.212,81,79.0173187255859,97,0,
00:00:01.216,81,79.0173187255859,97,0,
00:00:01.22,81,79.0173187255859,97,0,
00:00:01.224,81,78.8146820068359,97,0,
00:00:01.228,81,78.8146820068359,97,0,
00:00:01.232,81,78.8146820068359,97,0,
00:00:01.236,81,78.6095962524414,97,0,
00:00:01.24,81,78.6095962524414,97,0,
00:00:01.244,81,78.6095962524414,97,0,
00:00:01.248,81,78.6095962524414,97,0,
00:00:01.252,81,78.4069595336914,97,0,
00:00:01.256,81,78.4069595336914,97,0,
00:00:01.26,81,78.4069595336914,97,0,
00:00:01.264,81,78.2165222167969,97,0,
00:00:01.268,81,78.2165222167969,97,0,
00:00:01.272,81,78.2165222167969,97,0,
00:00:01.276,81,78.0358581542969,97,0,
00:00:01.28,81,78.0358581542969,97,0,
00:00:01.284,81,78.0358581542969,97,0,
00:00:01.288,81,78.0358581542969,97,0,
00:00:01.292,81,77.8722839355469,97,0,
00:00:01.296,81,77.8722839355469,97,0,
00:00:01.3,81,77.8722839355469,97,0,
00:00:01.304,81,77.7282333374023,97,0,
00:00:01.308,81,77.7282333374023,97,0,
00:00:01.312,81,77.7282333374023,97,0,
00:00:01.316,81,77.6037216186523,97,0,
00:00:01.32,81,77.6037216186523,97,0,
00:00:01.324,81,77.6037216186523,97,0,
00:00:01.328,81,77.4987411499023,97,0,
00:00:01.332,81,77.4987411499023,97,0,
00:00:01.336,81,77.4987411499023,97,0,
00:00:01.34,81,77.4987411499023,97,0,
00:00:01.344,81,77.4035263061523,97,0,
00:00:01.348,81,77.4035263061523,97,0,
00:00:01.352,81,77.4035263061523,97,0,
00:00:01.356,81,77.3131942749023,97,0,
00:00:01.36,81,77.3131942749023,97,0,
00:00:01.364,81,77.3131942749023,97,0,
00:00:01.368,81,77.3131942749023,97,0,
00:00:01.372,81,77.2228546142578,97,0,
00:00:01.376,81,77.2228546142578,97,0,
00:00:01.38,81,77.2228546142578,97,0,
00:00:01.384,81,77.1300811767578,97,0,
00:00:01.388,81,77.1300811767578,97,0,
00:00:01.392,81,77.1300811767578,97,0,
00:00:01.396,81,77.0324249267578,97,0,
00:00:01.4,81,77.0324249267578,97,0,
00:00:01.404,81,77.0324249267578,97,0,
00:00:01.408,81,76.9420928955078,97,0,
00:00:01.412,81,76.9420928955078,97,0,
00:00:01.416,81,76.9420928955078,97,0,
00:00:01.42,81,76.9420928955078,97,0,
00:00:01.424,81,76.8908233642578,97,0,
00:00:01.428,81,76.8908233642578,97,0,
00:00:01.432,81,76.8908233642578,97,0,
00:00:01.436,81,76.9518585205078,97,0,
00:00:01.44,81,76.9518585205078,97,0,
00:00:01.444,81,76.9518585205078,97,0,
00:00:01.448,81,76.9518585205078,97,0,
00:00:01.452,81,77.2155303955078,97,0,
00:00:01.456,81,77.2155303955078,97,0,
00:00:01.46,81,77.2155303955078,97,0,
00:00:01.464,81,77.7599792480469,97,0,
00:00:01.468,81,77.7599792480469,97,0,
00:00:01.472,81,77.7599792480469,97,0,
00:00:01.476,81,78.6193618774414,97,0,
00:00:01.48,81,78.6193618774414,97,0,
00:00:01.484,81,78.6193618774414,97,0,
00:00:01.488,81,79.7497482299805,97,0,
00:00:01.492,81,79.7497482299805,97,0,
00:00:01.496,81,79.7497482299805,97,0,
00:00:01.5,81,79.7497482299805,97,0,
00:00:01.504,81,81.0290679931641,97,0,
00:00:01.508,81,81.0290679931641,97,0,
00:00:01.512,81,81.0290679931641,97,0,
00:00:01.516,81,82.2937393188477,97,0,
00:00:01.52,81,82.2937393188477,97,0,
00:00:01.524,81,82.2937393188477,97,0,
00:00:01.528,81,82.2937393188477,97,0,
00:00:01.532,81,83.3875045776367,97,0,
00:00:01.536,81,83.3875045776367,97,0,
00:00:01.54,81,83.3875045776367,97,0,
00:00:01.544,81,84.2053833007813,97,0,
00:00:01.548,81,84.2053833007813,97,0,
00:00:01.552,81,84.2053833007813,97,0,
00:00:01.556,81,84.6961135864258,97,0,
00:00:01.56,81,84.6961135864258,97,0,
00:00:01.564,81,84.6961135864258,97,0,
00:00:01.568,81,84.6961135864258,97,0,
00:00:01.572,81,84.8670196533203,97,0,
00:00:01.576,81,84.8670196533203,97,0,
00:00:01.58,81,84.8670196533203,97,0,
00:00:01.584,81,84.7547149658203,97,0,
00:00:01.588,81,84.7547149658203,97,0,
00:00:01.592,81,84.7547149658203,97,0,
00:00:01.596,81,84.4153518676758,97,0,
00:00:01.6,81,84.4153518676758,97,0,
00:00:01.604,81,84.4153518676758,97,0,
00:00:01.608,81,84.4153518676758,97,0,
00:00:01.612,81,83.9124145507813,97,0,
00:00:01.616,81,83.9124145507813,97,0,
00:00:01.62,81,83.9124145507813,97,0,
00:00:01.624,81,83.3044967651367,97,0,
00:00:01.628,81,83.3044967651367,97,0,
00:00:01.632,81,83.3044967651367,97,0,
00:00:01.636,81,82.6330947875977,97,0,
00:00:01.64,81,82.6330947875977,97,0,
00:00:01.644,81,82.6330947875977,97,0,
00:00:01.648,82,81.9421691894531,97,0,
00:00:01.652,82,81.9421691894531,97,0,
00:00:01.656,82,81.9421691894531,97,0,
00:00:01.66,82,81.9421691894531,97,0,
00:00:01.664,82,81.2683334350586,97,0,
00:00:01.668,82,81.2683334350586,97,0,
00:00:01.672,82,81.2683334350586,97,0,
00:00:01.676,82,80.6482009887695,97,0,
00:00:01.68,82,80.6482009887695,97,0,
00:00:01.684,82,80.6482009887695,97,0,
00:00:01.688,82,80.6482009887695,97,0,
00:00:01.692,82,80.113525390625,97,0,
00:00:01.696,82,80.113525390625,97,0,
00:00:01.7,82,80.113525390625,97,0,
00:00:01.704,82,79.6960372924805,97,0,
00:00:01.708,82,79.6960372924805,97,0,
00:00:01.712,82,79.6960372924805,97,0,
00:00:01.716,82,79.4128341674805,97,0,
00:00:01.72,82,79.4128341674805,97,0,
00:00:01.724,82,79.4128341674805,97,0,
00:00:01.728,82,79.2590255737305,97,0,
00:00:01.732,82,79.2590255737305,97,0,
00:00:01.736,82,79.2590255737305,97,0,
00:00:01.74,82,79.2590255737305,97,0,
00:00:01.744,82,79.2150726318359,97,0,
00:00:01.748,82,79.2150726318359,97,0,
00:00:01.752,82,79.2150726318359,97,0,
00:00:01.756,82,79.2541427612305,97,0,
00:00:01.76,82,79.2541427612305,97,0,
00:00:01.764,82,79.2541427612305,97,0,
00:00:01.768,82,79.2541427612305,97,0,
00:00:01.772,82,79.3395919799805,97,0,
00:00:01.776,82,79.3395919799805,97,0,
00:00:01.78,82,79.3395919799805,97,0,
00:00:01.784,82,79.4323654174805,97,0,
00:00:01.788,82,79.4323654174805,97,0,
00:00:01.792,82,79.4323654174805,97,0,
00:00:01.796,82,79.5104904174805,97,0,
00:00:01.8,82,79.5104904174805,97,0,
00:00:01.804,82,79.5104904174805,97,0,
00:00:01.808,82,79.5471115112305,97,0,
00:00:01.812,82,79.5471115112305,97,0,
00:00:01.816,82,79.5471115112305,97,0,
00:00:01.82,82,79.5471115112305,97,0,
00:00:01.824,82,79.5349044799805,97,0,
00:00:01.828,82,79.5349044799805,97,0,
00:00:01.832,82,79.5349044799805,97,0,
00:00:01.836,82,79.4665451049805,97,0,
00:00:01.84,82,79.4665451049805,97,0,
00:00:01.844,82,79.4665451049805,97,0,
00:00:01.848,82,79.4665451049805,97,0,
00:00:01.852,82,79.3469161987305,97,0,
00:00:01.856,82,79.3469161987305,97,0,
00:00:01.86,82,79.3469161987305,97,0,
00:00:01.864,82,79.1930999755859,97,0,
00:00:01.868,82,79.1930999755859,97,0,
00:00:01.872,82,79.1930999755859,97,0,
00:00:01.876,82,79.0148773193359,97,0,
00:00:01.88,82,79.0148773193359,97,0,
00:00:01.884,82,79.0148773193359,97,0,
00:00:01.888,82,78.8342132568359,97,0,
00:00:01.892,82,78.8342132568359,97,0,
00:00:01.896,82,78.8342132568359,97,0,
00:00:01.9,82,78.8342132568359,97,0,
00:00:01.904,82,78.6633071899414,97,0,
00:00:01.908,82,78.6633071899414,97,0,
00:00:01.912,82,78.6633071899414,97,0,
00:00:01.916,82,78.5119400024414,97,0,
00:00:01.92,82,78.5119400024414,97,0,
00:00:01.924,82,78.5119400024414,97,0,
00:00:01.928,82,78.5119400024414,97,0,
00:00:01.932,82,78.3801040649414,97,0,
00:00:01.936,82,78.3801040649414,97,0,
00:00:01.94,82,78.3801040649414,97,0,
00:00:01.944,82,78.2653579711914,97,0,
00:00:01.948,82,78.2653579711914,97,0,
00:00:01.952,82,78.2653579711914,97,0,
00:00:01.956,82,78.1579284667969,97,0,
00:00:01.96,82,78.1579284667969,97,0,
00:00:01.964,82,78.1579284667969,97,0,
00:00:01.968,82,78.0553894042969,97,0,
00:00:01.972,82,78.0553894042969,97,0,
00:00:01.976,82,78.0553894042969,97,0,
00:00:01.98,82,78.0553894042969,97,0,
00:00:01.984,82,77.9552917480469,97,0,
00:00:01.988,82,77.9552917480469,97,0,
00:00:01.992,82,77.9552917480469,97,0,
00:00:01.996,82,77.8551940917969,97,0,
00:00:02,82,77.8551940917969,97,0,
00:00:02.004,82,77.8551940917969,97,0,
00:00:02.008,82,77.7550964355469,97,0,
00:00:02.012,82,77.7550964355469,97,0,
00:00:02.016,82,77.7550964355469,97,0,
00:00:02.02,82,77.7550964355469,97,0,
00:00:02.024,82,77.6549911499023,97,0,
00:00:02.028,82,77.6549911499023,97,0,
00:00:02.032,82,77.6549911499023,97,0,
00:00:02.036,82,77.5548934936523,97,0,
00:00:02.04,82,77.5548934936523,97,0,
00:00:02.044,82,77.5548934936523,97,0,
00:00:02.048,82,77.4523544311523,97,0,
00:00:02.052,82,77.4523544311523,97,0,
00:00:02.056,82,77.4523544311523,97,0,
00:00:02.06,82,77.4523544311523,97,0,
00:00:02.064,82,77.3546981811523,97,0,
00:00:02.068,82,77.3546981811523,97,0,
00:00:02.072,82,77.3546981811523,97,0,
00:00:02.076,82,77.2985458374023,97,0,
00:00:02.08,82,77.2985458374023,97,0,
00:00:02.084,82,77.2985458374023,97,0,
00:00:02.088,82,77.3473739624023,97,0,
00:00:02.092,82,77.3473739624023,97,0,
00:00:02.096,82,77.3473739624023,97,0,
00:00:02.1,82,77.3473739624023,97,0,
00:00:02.104,82,77.5963973999023,97,0,
00:00:02.108,82,77.5963973999023,97,0,
00:00:02.112,82,77.5963973999023,97,0,
00:00:02.116,82,78.1261901855469,97,0,
00:00:02.12,82,78.1261901855469,97,0,
00:00:02.124,82,78.1261901855469,97,0,
00:00:02.128,82,78.9636077880859,97,0,
00:00:02.132,82,78.9636077880859,97,0,
00:00:02.136,82,78.9636077880859,97,0,
00:00:02.14,82,78.9636077880859,97,0,
00:00:02.144,82,80.059814453125,97,0,
00:00:02.148,82,80.059814453125,97,0,
00:00:02.152,82,80.059814453125,97,0,
00:00:02.156,82,81.3073959350586,97,0,
00:00:02.16,82,81.3073959350586,97,0,
00:00:02.164,82,81.3073959350586,97,0,
00:00:02.168,82,82.5452041625977,97,0,
00:00:02.172,82,82.5452041625977,97,0,
00:00:02.176,82,82.5452041625977,97,0,
00:00:02.18,82,82.5452041625977,97,0,
00:00:02.184,82,83.6194381713867,97,0,
00:00:02.188,82,83.6194381713867,97,0,
00:00:02.192,82,83.6194381713867,97,0,
00:00:02.196,82,84.4153518676758,97,0,
00:00:02.2,82,84.4153518676758,97,0,
00:00:02.204,82,84.4153518676758,97,0,
00:00:02.208,82,84.4153518676758,97,0,
00:00:02.212,82,84.8963165283203,97,0,
00:00:02.216,82,84.8963165283203,97,0,
00:00:02.22,82,84.8963165283203,97,0,
00:00:02.224,82,85.0574493408203,97,0,
00:00:02.228,82,85.0574493408203,97,0,
00:00:02.232,82,85.0574493408203,97,0,
00:00:02.236,82,84.9378204345703,97,0,
00:00:02.24,82,84.9378204345703,97,0,
00:00:02.244,82,84.9378204345703,97,0,
00:00:02.248,82,84.9378204345703,97,0,
00:00:02.252,82,84.5935745239258,97,0,
00:00:02.256,82,84.5935745239258,97,0,
00:00:02.26,82,84.5935745239258,97,0,
00:00:02.264,82,84.0930786132813,97,0,
00:00:02.268,82,84.0930786132813,97,0,
00:00:02.272,82,84.0930786132813,97,0,
00:00:02.276,82,83.4827194213867,97,0,
00:00:02.28,82,83.4827194213867,97,0,
00:00:02.284,82,83.4827194213867,97,0,
00:00:02.288,82,83.4827194213867,97,0,
00:00:02.292,82,82.8137664794922,97,0,
00:00:02.296,82,82.8137664794922,97,0,
00:00:02.3,82,82.8137664794922,97,0,
00:00:02.304,82,82.1301574707031,97,0,
00:00:02.308,82,82.1301574707031,97,0,
00:00:02.312,82,82.1301574707031,97,0,
00:00:02.316,83,81.4660873413086,97,0,
00:00:02.32,83,81.4660873413086,97,0,
00:00:02.324,83,81.4660873413086,97,0,
00:00:02.328,83,80.8703765869141,97,0,
00:00:02.332,83,80.8703765869141,97,0,
00:00:02.336,83,80.8703765869141,97,0,
00:00:02.34,83,80.8703765869141,97,0,
00:00:02.344,83,80.3649978637695,97,0,
00:00:02.348,83,80.3649978637695,97,0,
00:00:02.352,83,80.3649978637695,97,0,
00:00:02.356,83,79.989013671875,97,0,
00:00:02.36,83,79.989013671875,97,0,
00:00:02.364,83,79.989013671875,97,0,
00:00:02.368,83,79.989013671875,97,0,
00:00:02.372,83,79.7399826049805,97,0,
00:00:02.376,83,79.7399826049805,97,0,
00:00:02.38,83,79.7399826049805,97,0,
00:00:02.384,83,79.6154708862305,97,0,
00:00:02.388,83,79.6154708862305,97,0,
00:00:02.392,83,79.6154708862305,97,0,
00:00:02.396,83,79.5934982299805,97,0,
00:00:02.4,83,79.5934982299805,97,0,
00:00:02.404,83,79.5934982299805,97,0,
00:00:02.408,83,79.6423263549805,97,0,
00:00:02.412,83,79.6423263549805,97,0,
00:00:02.416,83,79.6423263549805,97,0,
00:00:02.42,83,79.6423263549805,97,0,
00:00:02.424,83,79.7204513549805,97,0,
00:00:02.428,83,79.7204513549805,97,0,
00:00:02.432,83,79.7204513549805,97,0,
00:00:02.436,83,79.786376953125,97,0,
00:00:02.44,83,79.786376953125,97,0,
00:00:02.444,83,79.786376953125,97,0,
00:00:02.448,83,79.820556640625,97,0,
00:00:02.452,83,79.820556640625,97,0,
00:00:02.456,83,79.820556640625,97,0,
00:00:02.46,83,79.820556640625,97,0,
00:00:02.464,83,79.805908203125,97,0,
00:00:02.468,83,79.805908203125,97,0,
00:00:02.472,83,79.805908203125,97,0,
00:00:02.476,83,79.7424240112305,97,0,
00:00:02.48,83,79.7424240112305,97,0,
00:00:02.484,83,79.7424240112305,97,0,
00:00:02.488,83,79.6301193237305,97,0,
00:00:02.492,83,79.6301193237305,97,0,
00:00:02.496,83,79.6301193237305,97,0,
00:00:02.5,83,79.6301193237305,97,0,
00:00:02.504,83,79.4885177612305,97,0,
00:00:02.508,83,79.4885177612305,97,0,
00:00:02.512,83,79.4885177612305,97,0,
00:00:02.516,83,79.3225021362305,97,0,
00:00:02.52,83,79.3225021362305,97,0,
00:00:02.524,83,79.3225021362305,97,0,
00:00:02.528,83,79.1467132568359,97,0,
00:00:02.532,83,79.1467132568359,97,0,
00:00:02.536,83,79.1467132568359,97,0,
00:00:02.54,83,79.1467132568359,97,0,
00:00:02.544,83,78.9660491943359,97,0,
00:00:02.548,83,78.9660491943359,97,0,
00:00:02.552,83,78.9660491943359,97,0,
00:00:02.556,83,78.7853851318359,97,0,
00:00:02.56,83,78.7853851318359,97,0,
00:00:02.564,83,78.7853851318359,97,0,
00:00:02.568,83,78.7853851318359,97,0,
00:00:02.572,83,78.6095962524414,97,0,
00:00:02.576,83,78.6095962524414,97,0,
00:00:02.58,83,78.6095962524414,97,0,
00:00:02.584,83,78.4411392211914,97,0,
00:00:02.588,83,78.4411392211914,97,0,
00:00:02.592,83,78.4411392211914,97,0,
00:00:02.596,83,78.2848892211914,97,0,
00:00:02.6,83,78.2848892211914,97,0,
00:00:02.604,83,78.2848892211914,97,0,
00:00:02.608,83,78.1432800292969,97,0,
00:00:02.612,83,78.1432800292969,97,0,
00:00:02.616,83,78.1432800292969,97,0,
00:00:02.62,83,78.1432800292969,97,0,
00:00:02.624,83,78.0138854980469,97,0,
00:00:02.628,83,78.0138854980469,97,0,
00:00:02.632,83,78.0138854980469,97,0,
00:00:02.636,83,77.9015808105469,97,0,
00:00:02.64,83,77.9015808105469,97,0,
00:00:02.644,83,77.9015808105469,97,0,
00:00:02.648,83,77.7990417480469,97,0,
00:00:02.652,83,77.7990417480469,97,0,
00:00:02.656,83,77.7990417480469,97,0,
00:00:02.66,83,77.7990417480469,97,0,
00:00:02.664,83,77.6989364624023,97,0,
00:00:02.668,83,77.6989364624023,97,0,
00:00:02.672,83,77.6989364624023,97,0,
00:00:02.676,83,77.5963973999023,97,0,
00:00:02.68,83,77.5963973999023,97,0,
00:00:02.684,83,77.5963973999023,97,0,
00:00:02.688,83,77.4914169311523,97,0,
00:00:02.692,83,77.4914169311523,97,0,
00:00:02.696,83,77.4914169311523,97,0,
00:00:02.7,83,77.4914169311523,97,0,
00:00:02.704,83,77.3864364624023,97,0,
00:00:02.708,83,77.3864364624023,97,0,
00:00:02.712,83,77.3864364624023,97,0,
00:00:02.716,83,77.2912216186523,97,0,
00:00:02.72,83,77.2912216186523,97,0,
00:00:02.724,83,77.2912216186523,97,0,
00:00:02.728,83,77.2375030517578,97,0,
00:00:02.732,83,77.2375030517578,97,0,
00:00:02.736,83,77.2375030517578,97,0,
00:00:02.74,83,77.2375030517578,97,0,
00:00:02.744,83,77.3083114624023,97,0,
00:00:02.748,83,77.3083114624023,97,0,
00:00:02.752,83,77.3083114624023,97,0,
00:00:02.756,83,77.5963973999023,97,0,
00:00:02.76,83,77.5963973999023,97,0,
00:00:02.764,83,77.5963973999023,97,0,
00:00:02.768,83,78.1774597167969,97,0,
00:00:02.772,83,78.1774597167969,97,0,
00:00:02.776,83,78.1774597167969,97,0,
00:00:02.78,83,78.1774597167969,97,0,
00:00:02.784,83,79.0661468505859,97,0,
00:00:02.788,83,79.0661468505859,97,0,
00:00:02.792,83,79.0661468505859,97,0,
00:00:02.796,83,80.208740234375,97,0,
00:00:02.8,83,80.208740234375,97,0,
00:00:02.804,83,80.208740234375,97,0,
00:00:02.808,83,81.4782943725586,97,0,
00:00:02.812,83,81.4782943725586,97,0,
00:00:02.816,83,81.4782943725586,97,0,
00:00:02.82,83,81.4782943725586,97,0,
00:00:02.824,83,82.7112197875977,97,0,
00:00:02.828,83,82.7112197875977,97,0,
00:00:02.832,83,82.7112197875977,97,0,
00:00:02.836,83,83.7537231445313,97,0,
00:00:02.84,83,83.7537231445313,97,0,
00:00:02.844,83,83.7537231445313,97,0,
00:00:02.848,83,84.5081253051758,97,0,
00:00:02.852,83,84.5081253051758,97,0,
00:00:02.856,83,84.5081253051758,97,0,
00:00:02.86,83,84.5081253051758,97,0,
00:00:02.864,83,84.9353790283203,97,0,
00:00:02.868,83,84.9353790283203,97,0,
00:00:02.872,83,84.9353790283203,97,0,
00:00:02.876,83,85.0452423095703,97,0,
00:00:02.88,83,85.0452423095703,97,0,
00:00:02.884,83,85.0452423095703,97,0,
00:00:02.888,83,84.8767852783203,97,0,
00:00:02.892,83,84.8767852783203,97,0,
00:00:02.896,83,84.8767852783203,97,0,
00:00:02.9,83,84.8767852783203,97,0,
00:00:02.904,83,84.4934768676758,97,0,
00:00:02.908,83,84.4934768676758,97,0,
00:00:02.912,83,84.4934768676758,97,0,
00:00:02.916,83,83.9490356445313,97,0,
00:00:02.92,83,83.9490356445313,97,0,
00:00:02.924,83,83.9490356445313,97,0,
00:00:02.928,83,83.9490356445313,97,0,
00:00:02.932,83,83.3069381713867,97,0,
00:00:02.936,83,83.3069381713867,97,0,
00:00:02.94,83,83.3069381713867,97,0,
00:00:02.944,83,82.6086807250977,97,0,
00:00:02.948,83,82.6086807250977,97,0,
00:00:02.952,83,82.6086807250977,97,0,
00:00:02.956,83,81.9055480957031,97,0,
00:00:02.96,83,81.9055480957031,97,0,
00:00:02.964,83,81.9055480957031,97,0,
00:00:02.968,83,81.2317047119141,97,0,
00:00:02.972,83,81.2317047119141,97,0,
00:00:02.976,83,81.2317047119141,97,0,
00:00:02.98,83,81.2317047119141,97,0,
00:00:02.984,85,80.6237869262695,97,0,
00:00:02.988,85,80.6237869262695,97,0,
00:00:02.992,85,80.6237869262695,97,0,
00:00:02.996,85,80.115966796875,97,0,
00:00:03,85,80.115966796875,97,0,
00:00:03.004,85,80.115966796875,97,0,
00:00:03.008,85,79.7350997924805,97,0,
00:00:03.012,85,79.7350997924805,97,0,
00:00:03.016,85,79.7350997924805,97,0,
00:00:03.02,85,79.7350997924805,97,0,
00:00:03.024,85,79.4909591674805,97,0,
00:00:03.028,85,79.4909591674805,97,0,
00:00:03.032,85,79.4909591674805,97,0,
00:00:03.036,85,79.3713302612305,97,0,
00:00:03.04,85,79.3713302612305,97,0,
00:00:03.044,85,79.3713302612305,97,0,
00:00:03.048,85,79.3591232299805,97,0,
00:00:03.052,85,79.3591232299805,97,0,
00:00:03.056,85,79.3591232299805,97,0,
00:00:03.06,85,79.3591232299805,97,0,
00:00:03.064,85,79.4250411987305,97,0,
00:00:03.068,85,79.4250411987305,97,0,
00:00:03.072,85,79.4250411987305,97,0,
00:00:03.076,85,79.5178146362305,97,0,
00:00:03.08,85,79.5178146362305,97,0,
00:00:03.084,85,79.5178146362305,97,0,
00:00:03.088,85,79.6057052612305,97,0,
00:00:03.092,85,79.6057052612305,97,0,
00:00:03.096,85,79.6057052612305,97,0,
00:00:03.1,85,79.6057052612305,97,0,
00:00:03.104,85,79.6569747924805,97,0,
00:00:03.108,85,79.6569747924805,97,0,
00:00:03.112,85,79.6569747924805,97,0,
00:00:03.116,85,79.6520919799805,97,0,
00:00:03.12,85,79.6520919799805,97,0,
00:00:03.124,85,79.6520919799805,97,0,
00:00:03.128,85,79.5764083862305,97,0,
00:00:03.132,85,79.5764083862305,97,0,
00:00:03.136,85,79.5764083862305,97,0,
00:00:03.14,85,79.5764083862305,97,0,
00:00:03.144,85,79.4421310424805,97,0,
00:00:03.148,85,79.4421310424805,97,0,
00:00:03.152,85,79.4421310424805,97,0,
00:00:03.156,85,79.2663497924805,97,0,
00:00:03.16,85,79.2663497924805,97,0,
00:00:03.164,85,79.2663497924805,97,0,
00:00:03.168,85,79.0661468505859,97,0,
00:00:03.172,85,79.0661468505859,97,0,
00:00:03.176,85,79.0661468505859,97,0,
00:00:03.18,85,79.0661468505859,97,0,
00:00:03.184,85,78.8586273193359,97,0,
00:00:03.188,85,78.8586273193359,97,0,
00:00:03.192,85,78.8586273193359,97,0,
00:00:03.196,85,78.6511001586914,97,0,
00:00:03.2,85,78.6511001586914,97,0,
00:00:03.204,85,78.6511001586914,97,0,
00:00:03.208,85,78.6511001586914,97,0,
00:00:03.212,85,78.4557876586914,97,0,
00:00:03.216,85,78.4557876586914,97,0,
00:00:03.22,85,78.4557876586914,97,0,
00:00:03.224,85,78.2653579711914,97,0,
00:00:03.228,85,78.2653579711914,97,0,
00:00:03.232,85,78.2653579711914,97,0,
00:00:03.236,85,78.0798034667969,97,0,
00:00:03.24,85,78.0798034667969,97,0,
00:00:03.244,85,78.0798034667969,97,0,
00:00:03.248,85,78.0798034667969,97,0,
00:00:03.252,85,77.9089050292969,97,0,
00:00:03.256,85,77.9089050292969,97,0,
00:00:03.26,85,77.9089050292969,97,0,
00:00:03.264,85,77.7575378417969,97,0,
00:00:03.268,85,77.7575378417969,97,0,
00:00:03.272,85,77.7575378417969,97,0,
00:00:03.276,85,77.6232528686523,97,0,
00:00:03.28,85,77.6232528686523,97,0,
00:00:03.284,85,77.6232528686523,97,0,
00:00:03.288,85,77.6232528686523,97,0,
00:00:03.292,85,77.5036239624023,97,0,
00:00:03.296,85,77.5036239624023,97,0,
00:00:03.3,85,77.5036239624023,97,0,
00:00:03.304,85,77.4010848999023,97,0,
00:00:03.308,85,77.4010848999023,97,0,
00:00:03.312,85,77.4010848999023,97,0,
00:00:03.316,85,77.3034286499023,97,0,
00:00:03.32,85,77.3034286499023,97,0,
00:00:03.324,85,77.3034286499023,97,0,
00:00:03.328,85,77.2106475830078,97,0,
00:00:03.332,85,77.2106475830078,97,0,
00:00:03.336,85,77.2106475830078,97,0,
00:00:03.34,85,77.2106475830078,97,0,
00:00:03.344,85,77.1178741455078,97,0,
00:00:03.348,85,77.1178741455078,97,0,
00:00:03.352,85,77.1178741455078,97,0,
00:00:03.356,85,77.0592803955078,97,0,
00:00:03.36,85,77.0592803955078,97,0,
00:00:03.364,85,77.0592803955078,97,0,
00:00:03.368,85,77.0592803955078,97,0,
00:00:03.372,85,77.0983428955078,97,0,
00:00:03.376,85,77.0983428955078,97,0,
00:00:03.38,85,77.0983428955078,97,0,
00:00:03.384,85,77.3424911499023,97,0,
00:00:03.388,85,77.3424911499023,97,0,
00:00:03.392,85,77.3424911499023,97,0,
00:00:03.396,85,77.8844909667969,97,0,
00:00:03.4,85,77.8844909667969,97,0,
00:00:03.404,85,77.8844909667969,97,0,
00:00:03.408,85,78.7756195068359,97,0,
00:00:03.412,85,78.7756195068359,97,0,
00:00:03.416,85,78.7756195068359,97,0,
00:00:03.42,85,78.7756195068359,97,0,
00:00:03.424,85,79.974365234375,97,0,
00:00:03.428,85,79.974365234375,97,0,
00:00:03.432,85,79.974365234375,97,0,
00:00:03.436,85,81.3659896850586,97,0,
00:00:03.44,85,81.3659896850586,97,0,
00:00:03.444,85,81.3659896850586,97,0,
00:00:03.448,85,81.3659896850586,97,0,
00:00:03.452,85,82.7844696044922,97,0,
00:00:03.456,85,82.7844696044922,97,0,
00:00:03.46,85,82.7844696044922,97,0,
00:00:03.464,85,84.0540161132813,97,0,
00:00:03.468,85,84.0540161132813,97,0,
00:00:03.472,85,84.0540161132813,97,0,
00:00:03.476,85,85.0428009033203,97,0,
00:00:03.48,85,85.0428009033203,97,0,
00:00:03.484,85,85.0428009033203,97,0,
00:00:03.488,85,85.6897811889648,97,0,
00:00:03.492,85,85.6897811889648,97,0,
00:00:03.496,85,85.6897811889648,97,0,
00:00:03.5,85,85.6897811889648,97,0,
00:00:03.504,85,85.9900817871094,97,0,
00:00:03.508,85,85.9900817871094,97,0,
00:00:03.512,85,85.9900817871094,97,0,
00:00:03.516,85,85.9778747558594,97,0,
00:00:03.52,85,85.9778747558594,97,0,
00:00:03.524,85,85.9778747558594,97,0,
00:00:03.528,85,85.9778747558594,97,0,
00:00:03.532,85,85.7117538452148,97,0,
00:00:03.536,85,85.7117538452148,97,0,
00:00:03.54,85,85.7117538452148,97,0,
00:00:03.544,85,85.2600936889648,97,0,
00:00:03.548,85,85.2600936889648,97,0,
00:00:03.552,85,85.2600936889648,97,0,
00:00:03.556,85,84.6863479614258,97,0,
00:00:03.56,85,84.6863479614258,97,0,
00:00:03.564,85,84.6863479614258,97,0,
00:00:03.568,85,84.6863479614258,97,0,
00:00:03.572,85,84.0418090820313,97,0,
00:00:03.576,85,84.0418090820313,97,0,
00:00:03.58,85,84.0418090820313,97,0,
00:00:03.584,85,83.3655319213867,97,0,
00:00:03.588,85,83.3655319213867,97,0,
00:00:03.592,85,83.3655319213867,97,0,
00:00:03.596,85,82.6843643188477,97,0,
00:00:03.6,85,82.6843643188477,97,0,
00:00:03.604,85,82.6843643188477,97,0,
00:00:03.608,85,82.6843643188477,97,0,
00:00:03.612,85,82.0373840332031,97,0,
00:00:03.616,85,82.0373840332031,97,0,
00:00:03.62,85,82.0373840332031,97,0,
00:00:03.624,85,81.4563217163086,97,0,
00:00:03.628,85,81.4563217163086,97,0,
00:00:03.632,85,81.4563217163086,97,0,
00:00:03.636,85,80.9680328369141,97,0,
00:00:03.64,85,80.9680328369141,97,0,
00:00:03.644,85,80.9680328369141,97,0,
00:00:03.648,86,80.5944900512695,96,0,
00:00:03.652,86,80.5944900512695,96,0,
00:00:03.656,86,80.5944900512695,96,0,
00:00:03.66,86,80.5944900512695,96,0,
00:00:03.664,86,80.3430252075195,96,0,
00:00:03.668,86,80.3430252075195,96,0,
00:00:03.672,86,80.3430252075195,96,0,
00:00:03.676,86,80.203857421875,96,0,
00:00:03.68,86,80.203857421875,96,0,
00:00:03.684,86,80.203857421875,96,0,
00:00:03.688,86,80.203857421875,96,0,
00:00:03.692,86,80.150146484375,96,0,
00:00:03.696,86,80.150146484375,96,0,
00:00:03.7,86,80.150146484375,96,0,
00:00:03.704,86,80.147705078125,96,0,
00:00:03.708,86,80.147705078125,96,0,
00:00:03.712,86,80.147705078125,96,0,
00:00:03.716,86,80.164794921875,96,0,
00:00:03.72,86,80.164794921875,96,0,
00:00:03.724,86,80.164794921875,96,0,
00:00:03.728,86,80.159912109375,96,0,
00:00:03.732,86,80.159912109375,96,0,
00:00:03.736,86,80.159912109375,96,0,
00:00:03.74,86,80.159912109375,96,0,
00:00:03.744,86,80.123291015625,96,0,
00:00:03.748,86,80.123291015625,96,0,
00:00:03.752,86,80.123291015625,96,0,
00:00:03.756,86,80.037841796875,96,0,
00:00:03.76,86,80.037841796875,96,0,
00:00:03.764,86,80.037841796875,96,0,
00:00:03.768,86,80.037841796875,96,0,
00:00:03.772,86,79.898681640625,96,0,
00:00:03.776,86,79.898681640625,96,0,
00:00:03.78,86,79.898681640625,96,0,
00:00:03.784,86,79.7180099487305,96,0,
00:00:03.788,86,79.7180099487305,96,0,
00:00:03.792,86,79.7180099487305,96,0,
00:00:03.796,86,79.5007247924805,96,0,
00:00:03.8,86,79.5007247924805,96,0,
00:00:03.804,86,79.5007247924805,96,0,
00:00:03.808,86,79.2614669799805,96,0,
00:00:03.812,86,79.2614669799805,96,0,
00:00:03.816,86,79.2614669799805,96,0,
00:00:03.82,86,79.2614669799805,96,0,
00:00:03.824,86,79.0099945068359,96,0,
00:00:03.828,86,79.0099945068359,96,0,
00:00:03.832,86,79.0099945068359,96,0,
00:00:03.836,86,78.7634124755859,96,0,
00:00:03.84,86,78.7634124755859,96,0,
00:00:03.844,86,78.7634124755859,96,0,
00:00:03.848,86,78.7634124755859,96,0,
00:00:03.852,86,78.5241470336914,96,0,
00:00:03.856,86,78.5241470336914,96,0,
00:00:03.86,86,78.5241470336914,96,0,
00:00:03.864,86,78.2946548461914,96,0,
00:00:03.868,86,78.2946548461914,96,0,
00:00:03.872,86,78.2946548461914,96,0,
00:00:03.876,86,78.0846862792969,96,0,
00:00:03.88,86,78.0846862792969,96,0,
00:00:03.884,86,78.0846862792969,96,0,
00:00:03.888,86,77.8942565917969,96,0,
00:00:03.892,86,77.8942565917969,96,0,
00:00:03.896,86,77.8942565917969,96,0,
00:00:03.9,86,77.8942565917969,96,0,
00:00:03.904,86,77.7184677124023,96,0,
00:00:03.908,86,77.7184677124023,96,0,
00:00:03.912,86,77.7184677124023,96,0,
00:00:03.916,86,77.5573348999023,96,0,
00:00:03.92,86,77.5573348999023,96,0,
00:00:03.924,86,77.5573348999023,96,0,
00:00:03.928,86,77.5573348999023,96,0,
00:00:03.932,86,77.4059677124023,96,0,
00:00:03.936,86,77.4059677124023,96,0,
00:00:03.94,86,77.4059677124023,96,0,
00:00:03.944,86,77.2668075561523,96,0,
00:00:03.948,86,77.2668075561523,96,0,
00:00:03.952,86,77.2668075561523,96,0,
00:00:03.956,86,77.1349639892578,96,0,
00:00:03.96,86,77.1349639892578,96,0,
00:00:03.964,86,77.1349639892578,96,0,
00:00:03.968,86,77.0080108642578,96,0,
00:00:03.972,86,77.0080108642578,96,0,
00:00:03.976,86,77.0080108642578,96,0,
00:00:03.98,86,77.0080108642578,96,0,
00:00:03.984,86,76.8834991455078,96,0,
00:00:03.988,86,76.8834991455078,96,0,
00:00:03.992,86,76.8834991455078,96,0,
00:00:03.996,86,76.7882843017578,96,0,
00:00:04,86,76.7882843017578,96,0,
00:00:04.004,86,76.7882843017578,96,0,
00:00:04.008,86,76.7736358642578,96,0,
00:00:04.012,86,76.7736358642578,96,0,
00:00:04.016,86,76.7736358642578,96,0,
00:00:04.02,86,76.7736358642578,96,0,
00:00:04.024,86,76.9494171142578,96,0,
00:00:04.028,86,76.9494171142578,96,0,
00:00:04.032,86,76.9494171142578,96,0,
00:00:04.036,86,77.4254989624023,96,0,
00:00:04.04,86,77.4254989624023,96,0,
00:00:04.044,86,77.4254989624023,96,0,
00:00:04.048,86,78.2800064086914,96,0,
00:00:04.052,86,78.2800064086914,96,0,
00:00:04.056,86,78.2800064086914,96,0,
00:00:04.06,86,78.2800064086914,96,0,
00:00:04.064,86,79.5031661987305,96,0,
00:00:04.068,86,79.5031661987305,96,0,
00:00:04.072,86,79.5031661987305,96,0,
00:00:04.076,86,81.0046539306641,96,0,
00:00:04.08,86,81.0046539306641,96,0,
00:00:04.084,86,81.0046539306641,96,0,
00:00:04.088,86,82.6160049438477,96,0,
00:00:04.092,86,82.6160049438477,96,0,
00:00:04.096,86,82.6160049438477,96,0,
00:00:04.1,86,82.6160049438477,96,0,
00:00:04.104,86,84.1419067382813,96,0,
00:00:04.108,86,84.1419067382813,96,0,
00:00:04.112,86,84.1419067382813,96,0,
00:00:04.116,86,85.4187850952148,96,0,
00:00:04.12,86,85.4187850952148,96,0,
00:00:04.124,86,85.4187850952148,96,0,
00:00:04.128,86,86.3563003540039,96,0,
00:00:04.132,86,86.3563003540039,96,0,
00:00:04.136,86,86.3563003540039,96,0,
00:00:04.14,86,86.3563003540039,96,0,
00:00:04.144,86,86.9275970458984,96,0,
00:00:04.148,86,86.9275970458984,96,0,
00:00:04.152,86,86.9275970458984,96,0,
00:00:04.156,86,87.1497650146484,96,0,
00:00:04.16,86,87.1497650146484,96,0,
00:00:04.164,86,87.1497650146484,96,0,
00:00:04.168,86,87.0862884521484,96,0,
00:00:04.172,86,87.0862884521484,96,0,
00:00:04.176,86,87.0862884521484,96,0,
00:00:04.18,86,87.0862884521484,96,0,
00:00:04.184,86,86.7982025146484,96,0,
00:00:04.188,86,86.7982025146484,96,0,
00:00:04.192,86,86.7982025146484,96,0,
00:00:04.196,86,86.3538589477539,96,0,
00:00:04.2,86,86.3538589477539,96,0,
00:00:04.204,86,86.3538589477539,96,0,
00:00:04.208,86,86.3538589477539,96,0,
00:00:04.212,86,85.8045349121094,96,0,
00:00:04.216,86,85.8045349121094,96,0,
00:00:04.22,86,85.8045349121094,96,0,
00:00:04.224,86,85.1844024658203,96,0,
00:00:04.228,86,85.1844024658203,96,0,
00:00:04.232,86,85.1844024658203,96,0,
00:00:04.236,86,84.5227737426758,96,0,
00:00:04.24,86,84.5227737426758,96,0,
00:00:04.244,86,84.5227737426758,96,0,
00:00:04.248,86,84.5227737426758,96,0,
00:00:04.252,86,83.8440551757813,96,0,
00:00:04.256,86,83.8440551757813,96,0,
00:00:04.26,86,83.8440551757813,96,0,
00:00:04.264,86,83.1750946044922,96,0,
00:00:04.268,86,83.1750946044922,96,0,
00:00:04.272,86,83.1750946044922,96,0,
00:00:04.276,86,82.5452041625977,96,0,
00:00:04.28,86,82.5452041625977,96,0,
00:00:04.284,86,82.5452041625977,96,0,
00:00:04.288,86,82.5452041625977,96,0,
00:00:04.292,86,81.9836730957031,96,0,
00:00:04.296,86,81.9836730957031,96,0,
00:00:04.3,86,81.9836730957031,96,0,
00:00:04.304,86,81.5124740600586,96,0,
00:00:04.308,86,81.5124740600586,96,0,
00:00:04.312,86,81.5124740600586,96,0,
00:00:04.316,88,81.1438140869141,96,0,
00:00:04.32,88,81.1438140869141,96,0,
00:00:04.324,88,81.1438140869141,96,0,
00:00:04.328,88,80.8752593994141,96,0,
00:00:04.332,88,80.8752593994141,96,0,
00:00:04.336,88,80.8752593994141,96,0,
00:00:04.34,88,80.8752593994141,96,0,
00:00:04.344,88,80.6921463012695,96,0,
00:00:04.348,88,80.6921463012695,96,0,
00:00:04.352,88,80.6921463012695,96,0,
00:00:04.356,88,80.5725173950195,96,0,
00:00:04.36,88,80.5725173950195,96,0,
00:00:04.364,88,80.5725173950195,96,0,
00:00:04.368,88,80.4846267700195,96,0,
00:00:04.372,88,80.4846267700195,96,0,
00:00:04.376,88,80.4846267700195,96,0,
00:00:04.38,88,80.4846267700195,96,0,
00:00:04.384,88,80.4040603637695,96,0,
00:00:04.388,88,80.4040603637695,96,0,
00:00:04.392,88,80.4040603637695,96,0,
00:00:04.396,88,80.3015213012695,96,0,
00:00:04.4,88,80.3015213012695,96,0,
00:00:04.404,88,80.3015213012695,96,0,
00:00:04.408,88,80.164794921875,96,0,
00:00:04.412,88,80.164794921875,96,0,
00:00:04.416,88,80.164794921875,96,0,
00:00:04.42,88,80.164794921875,96,0,
00:00:04.424,88,79.986572265625,96,0,
00:00:04.428,88,79.986572265625,96,0,
00:00:04.432,88,79.986572265625,96,0,
00:00:04.436,88,79.771728515625,96,0,
00:00:04.44,88,79.771728515625,96,0,
00:00:04.444,88,79.771728515625,96,0,
00:00:04.448,88,79.5300216674805,96,0,
00:00:04.452,88,79.5300216674805,96,0,
00:00:04.456,88,79.5300216674805,96,0,
00:00:04.46,88,79.5300216674805,96,0,
00:00:04.464,88,79.2736740112305,96,0,
00:00:04.468,88,79.2736740112305,96,0,
00:00:04.472,88,79.2736740112305,96,0,
00:00:04.476,88,79.0148773193359,96,0,
00:00:04.48,88,79.0148773193359,96,0,
00:00:04.484,88,79.0148773193359,96,0,
00:00:04.488,88,78.7585296630859,96,0,
00:00:04.492,88,78.7585296630859,96,0,
00:00:04.496,88,78.7585296630859,96,0,
00:00:04.5,88,78.7585296630859,96,0,
00:00:04.504,88,78.4997329711914,96,0,
00:00:04.508,88,78.4997329711914,96,0,
00:00:04.512,88,78.4997329711914,96,0,
00:00:04.516,88,78.2409362792969,96,0,
00:00:04.52,88,78.2409362792969,96,0,
00:00:04.524,88,78.2409362792969,96,0,
00:00:04.528,88,77.9919128417969,96,0,
00:00:04.532,88,77.9919128417969,96,0,
00:00:04.536,88,77.9919128417969,96,0,
00:00:04.54,88,77.9919128417969,96,0,
00:00:04.544,88,77.7575378417969,96,0,
00:00:04.548,88,77.7575378417969,96,0,
00:00:04.552,88,77.7575378417969,96,0,
00:00:04.556,88,77.5378036499023,96,0,
00:00:04.56,88,77.5378036499023,96,0,
00:00:04.564,88,77.5378036499023,96,0,
00:00:04.568,88,77.5378036499023,96,0,
00:00:04.572,88,77.3351669311523,96,0,
00:00:04.576,88,77.3351669311523,96,0,
00:00:04.58,88,77.3351669311523,96,0,
00:00:04.584,88,77.1471710205078,96,0,
00:00:04.588,88,77.1471710205078,96,0,
00:00:04.592,88,77.1471710205078,96,0,
00:00:04.596,88,76.9665069580078,96,0,
00:00:04.6,88,76.9665069580078,96,0,
00:00:04.604,88,76.9665069580078,96,0,
00:00:04.608,88,76.7956085205078,96,0,
00:00:04.612,88,76.7956085205078,96,0,
00:00:04.616,88,76.7956085205078,96,0,
00:00:04.62,88,76.7956085205078,96,0,
00:00:04.624,88,76.6393508911133,96,0,
00:00:04.628,88,76.6393508911133,96,0,
00:00:04.632,88,76.6393508911133,96,0,
00:00:04.636,88,76.4977493286133,96,0,
00:00:04.64,88,76.4977493286133,96,0,
00:00:04.644,88,76.4977493286133,96,0,
00:00:04.648,88,76.3683547973633,96,0,
00:00:04.652,88,76.3683547973633,96,0,
00:00:04.656,88,76.3683547973633,96,0,
00:00:04.66,88,76.3683547973633,96,0,
00:00:04.664,88,76.2560501098633,96,0,
00:00:04.668,88,76.2560501098633,96,0,
00:00:04.672,88,76.2560501098633,96,0,
00:00:04.676,88,76.1535034179688,96,0,
00:00:04.68,88,76.1535034179688,96,0,
00:00:04.684,88,76.1535034179688,96,0,
00:00:04.688,88,76.0875854492188,96,0,
00:00:04.692,88,76.0875854492188,96,0,
00:00:04.696,88,76.0875854492188,96,0,
00:00:04.7,88,76.0875854492188,96,0,
00:00:04.704,88,76.1315307617188,96,0,
00:00:04.708,88,76.1315307617188,96,0,
00:00:04.712,88,76.1315307617188,96,0,
00:00:04.716,88,76.4000930786133,96,0,
00:00:04.72,88,76.4000930786133,96,0,
00:00:04.724,88,76.4000930786133,96,0,
00:00:04.728,88,76.9958038330078,96,0,
00:00:04.732,88,76.9958038330078,96,0,
00:00:04.736,88,76.9958038330078,96,0,
00:00:04.74,88,76.9958038330078,96,0,
00:00:04.744,88,77.9821472167969,96,0,
00:00:04.748,88,77.9821472167969,96,0,
00:00:04.752,88,77.9821472167969,96,0,
00:00:04.756,88,79.3371505737305,96,0,
00:00:04.76,88,79.3371505737305,96,0,
00:00:04.764,88,79.3371505737305,96,0,
00:00:04.768,88,80.9485015869141,96,0,
00:00:04.772,88,80.9485015869141,96,0,
00:00:04.776,88,80.9485015869141,96,0,
00:00:04.78,88,80.9485015869141,96,0,
00:00:04.784,88,82.6306533813477,96,0,
00:00:04.788,88,82.6306533813477,96,0,
00:00:04.792,88,82.6306533813477,96,0,
00:00:04.796,88,84.2029418945313,96,0,
00:00:04.8,88,84.2029418945313,96,0,
00:00:04.804,88,84.2029418945313,96,0,
00:00:04.808,88,85.4993515014648,96,0,
00:00:04.812,88,85.4993515014648,96,0,
00:00:04.816,88,85.4993515014648,96,0,
00:00:04.82,88,85.4993515014648,96,0,
00:00:04.824,88,86.4393081665039,96,0,
00:00:04.828,88,86.4393081665039,96,0,
00:00:04.832,88,86.4393081665039,96,0,
00:00:04.836,88,86.9983978271484,96,0,
00:00:04.84,88,86.9983978271484,96,0,
00:00:04.844,88,86.9983978271484,96,0,
00:00:04.848,88,87.2083587646484,96,0,
00:00:04.852,88,87.2083587646484,96,0,
00:00:04.856,88,87.2083587646484,96,0,
00:00:04.86,88,87.2083587646484,96,0,
00:00:04.864,88,87.1204681396484,96,0,
00:00:04.868,88,87.1204681396484,96,0,
00:00:04.872,88,87.1204681396484,96,0,
00:00:04.876,88,86.8177337646484,96,0,
00:00:04.88,88,86.8177337646484,96,0,
00:00:04.884,88,86.8177337646484,96,0,
00:00:04.888,88,86.3660659790039,96,0,
00:00:04.892,88,86.3660659790039,96,0,
00:00:04.896,88,86.3660659790039,96,0,
00:00:04.9,88,86.3660659790039,96,0,
00:00:04.904,88,85.8094177246094,96,0,
00:00:04.908,88,85.8094177246094,96,0,
00:00:04.912,88,85.8094177246094,96,0,
00:00:04.916,88,85.1844024658203,96,0,
00:00:04.92,88,85.1844024658203,96,0,
00:00:04.924,88,85.1844024658203,96,0,
00:00:04.928,88,85.1844024658203,96,0,
00:00:04.932,88,84.5105667114258,96,0,
00:00:04.936,88,84.5105667114258,96,0,
00:00:04.94,88,84.5105667114258,96,0,
00:00:04.944,88,83.8074340820313,96,0,
00:00:04.948,88,83.8074340820313,96,0,
00:00:04.952,88,83.8074340820313,96,0,
00:00:04.956,88,83.1091766357422,96,0,
00:00:04.96,88,83.1091766357422,96,0,
00:00:04.964,88,83.1091766357422,96,0,
00:00:04.968,88,82.4499893188477,96,0,
00:00:04.972,88,82.4499893188477,96,0,
00:00:04.976,88,82.4499893188477,96,0,
00:00:04.98,88,82.4499893188477,96,0,
00:00:04.984,89,81.8689270019531,96,0,
00:00:04.988,89,81.8689270019531,96,0,
00:00:04.992,89,81.8689270019531,96,0,
00:00:04.996,89,81.3879623413086,96,0,
00:00:05,89,81.3879623413086,96,0,
00:00:05.004,89,81.3879623413086,96,0,
00:00:05.008,89,81.0168609619141,96,0,
00:00:05.012,89,81.0168609619141,96,0,
00:00:05.016,89,81.0168609619141,96,0,
00:00:05.02,89,81.0168609619141,96,0,
00:00:05.024,89,80.7482986450195,96,0,
00:00:05.028,89,80.7482986450195,96,0,
00:00:05.032,89,80.7482986450195,96,0,
00:00:05.036,89,80.5676345825195,96,0,
00:00:05.04,89,80.5676345825195,96,0,
00:00:05.044,89,80.5676345825195,96,0,
00:00:05.048,89,80.4431228637695,96,0,
00:00:05.052,89,80.4431228637695,96,0,
00:00:05.056,89,80.4431228637695,96,0,
00:00:05.06,89,80.4431228637695,96,0,
00:00:05.064,89,80.3527908325195,96,0,
00:00:05.068,89,80.3527908325195,96,0,
00:00:05.072,89,80.3527908325195,96,0,
00:00:05.076,89,80.2600173950195,96,0,
00:00:05.08,89,80.2600173950195,96,0,
00:00:05.084,89,80.2600173950195,96,0,
00:00:05.088,89,80.145263671875,96,0,
00:00:05.092,89,80.145263671875,96,0,
00:00:05.096,89,80.145263671875,96,0,
00:00:05.1,89,80.145263671875,96,0,
00:00:05.104,89,79.991455078125,96,0,
00:00:05.108,89,79.991455078125,96,0,
00:00:05.112,89,79.991455078125,96,0,
00:00:05.116,89,79.796142578125,96,0,
00:00:05.12,89,79.796142578125,96,0,
00:00:05.124,89,79.796142578125,96,0,
00:00:05.128,89,79.5666427612305,96,0,
00:00:05.132,89,79.5666427612305,96,0,
00:00:05.136,89,79.5666427612305,96,0,
00:00:05.14,89,79.5666427612305,96,0,
00:00:05.144,89,79.3078536987305,96,0,
00:00:05.148,89,79.3078536987305,96,0,
00:00:05.152,89,79.3078536987305,96,0,
00:00:05.156,89,79.0319671630859,96,0,
00:00:05.16,89,79.0319671630859,96,0,
00:00:05.164,89,79.0319671630859,96,0,
00:00:05.168,89,78.7487564086914,96,0,
00:00:05.172,89,78.7487564086914,96,0,
00:00:05.176,89,78.7487564086914,96,0,
00:00:05.18,89,78.7487564086914,96,0,
00:00:05.184,89,78.4606704711914,96,0,
00:00:05.188,89,78.4606704711914,96,0,
00:00:05.192,89,78.4606704711914,96,0,
00:00:05.196,89,78.1701354980469,96,0,
00:00:05.2,89,78.1701354980469,96,0,
00:00:05.204,89,78.1701354980469,96,0,
00:00:05.208,89,78.1701354980469,96,0,
00:00:05.212,89,77.8893737792969,96,0,
00:00:05.216,89,77.8893737792969,96,0,
00:00:05.22,89,77.8893737792969,96,0,
00:00:05.224,89,77.6183700561523,96,0,
00:00:05.228,89,77.6183700561523,96,0,
00:00:05.232,89,77.6183700561523,96,0,
00:00:05.236,89,77.3546981811523,96,0,
00:00:05.24,89,77.3546981811523,96,0,
00:00:05.244,89,77.3546981811523,96,0,
00:00:05.248,89,77.3546981811523,96,0,
00:00:05.252,89,77.1056671142578,96,0,
00:00:05.256,89,77.1056671142578,96,0,
00:00:05.26,89,77.1056671142578,96,0,
00:00:05.264,89,76.8688507080078,96,0,
00:00:05.268,89,76.8688507080078,96,0,
00:00:05.272,89,76.8688507080078,96,0,
00:00:05.276,89,76.6515579223633,96,0,
00:00:05.28,89,76.6515579223633,96,0,
00:00:05.284,89,76.6515579223633,96,0,
00:00:05.288,89,76.6515579223633,96,0,
00:00:05.292,89,76.4562454223633,96,0,
00:00:05.296,89,76.4562454223633,96,0,
00:00:05.3,89,76.4562454223633,96,0,
00:00:05.304,89,76.2853469848633,96,0,
00:00:05.308,89,76.2853469848633,96,0,
00:00:05.312,89,76.2853469848633,96,0,
00:00:05.316,89,76.1315307617188,96,0,
00:00:05.32,89,76.1315307617188,96,0,
00:00:05.324,89,76.1315307617188,96,0,
00:00:05.328,89,75.9923706054688,96,0,
00:00:05.332,89,75.9923706054688,96,0,
00:00:05.336,89,75.9923706054688,96,0,
00:00:05.34,89,75.9923706054688,96,0,
00:00:05.344,89,75.8678588867188,96,0,
00:00:05.348,89,75.8678588867188,96,0,
00:00:05.352,89,75.8678588867188,96,0,
00:00:05.356,89,75.7531127929688,96,0,
00:00:05.36,89,75.7531127929688,96,0,
00:00:05.364,89,75.7531127929688,96,0,
00:00:05.368,89,75.6456832885742,96,0,
00:00:05.372,89,75.6456832885742,96,0,
00:00:05.376,89,75.6456832885742,96,0,
00:00:05.38,89,75.6456832885742,96,0,
00:00:05.384,89,75.5553512573242,96,0,
00:00:05.388,89,75.5553512573242,96,0,
00:00:05.392,89,75.5553512573242,96,0,
00:00:05.396,89,75.4772262573242,96,0,
00:00:05.4,89,75.4772262573242,96,0,
00:00:05.404,89,75.4772262573242,96,0,
00:00:05.408,89,75.4088668823242,96,0,
00:00:05.412,89,75.4088668823242,96,0,
00:00:05.416,89,75.4088668823242,96,0,
00:00:05.42,89,75.4088668823242,96,0,
00:00:05.424,89,75.3600387573242,96,0,
00:00:05.428,89,75.3600387573242,96,0,
00:00:05.432,89,75.3600387573242,96,0,
00:00:05.436,89,75.3991012573242,96,0,
00:00:05.44,89,75.3991012573242,96,0,
00:00:05.444,89,75.3991012573242,96,0,
00:00:05.448,89,75.6212692260742,96,0,
00:00:05.452,89,75.6212692260742,96,0,
00:00:05.456,89,75.6212692260742,96,0,
00:00:05.46,89,75.6212692260742,96,0,
00:00:05.464,89,76.1437377929688,96,0,
00:00:05.468,89,76.1437377929688,96,0,
00:00:05.472,89,76.1437377929688,96,0,
00:00:05.476,89,77.0421905517578,96,0,
00:00:05.48,89,77.0421905517578,96,0,
00:00:05.484,89,77.0421905517578,96,0,
00:00:05.488,89,78.3312759399414,96,0,
00:00:05.492,89,78.3312759399414,96,0,
00:00:05.496,89,78.3312759399414,96,0,
00:00:05.5,89,78.3312759399414,96,0,
00:00:05.504,89,79.920654296875,96,0,
00:00:05.508,89,79.920654296875,96,0,
00:00:05.512,89,79.920654296875,96,0,
00:00:05.516,89,81.6516342163086,96,0,
00:00:05.52,89,81.6516342163086,96,0,
00:00:05.524,89,81.6516342163086,96,0,
00:00:05.528,89,83.3240280151367,96,0,
00:00:05.532,89,83.3240280151367,96,0,
00:00:05.536,89,83.3240280151367,96,0,
00:00:05.54,89,83.3240280151367,96,0,
00:00:05.544,89,84.7669219970703,96,0,
00:00:05.548,89,84.7669219970703,96,0,
00:00:05.552,89,84.7669219970703,96,0,
00:00:05.556,89,85.8655700683594,96,0,
00:00:05.56,89,85.8655700683594,96,0,
00:00:05.564,89,85.8655700683594,96,0,
00:00:05.568,89,86.5735855102539,96,0,
00:00:05.572,89,86.5735855102539,96,0,
00:00:05.576,89,86.5735855102539,96,0,
00:00:05.58,89,86.5735855102539,96,0,
00:00:05.584,89,86.9080657958984,96,0,
00:00:05.588,89,86.9080657958984,96,0,
00:00:05.592,89,86.9080657958984,96,0,
00:00:05.596,89,86.9153900146484,96,0,
00:00:05.6,89,86.9153900146484,96,0,
00:00:05.604,89,86.9153900146484,96,0,
00:00:05.608,89,86.6663589477539,96,0,
00:00:05.612,89,86.6663589477539,96,0,
00:00:05.616,89,86.6663589477539,96,0,
00:00:05.62,89,86.6663589477539,96,0,
00:00:05.624,89,86.2342224121094,96,0,
00:00:05.628,89,86.2342224121094,96,0,
00:00:05.632,89,86.2342224121094,96,0,
00:00:05.636,89,85.6751327514648,96,0,
00:00:05.64,89,85.6751327514648,96,0,
00:00:05.644,89,85.6751327514648,96,0,
00:00:05.648,89,85.0330352783203,96,0,
00:00:05.652,89,85.0330352783203,96,0,
00:00:05.656,89,85.0330352783203,96,0,
00:00:05.66,89,85.0330352783203,96,0,
00:00:05.664,89,84.3396682739258,96,0,
00:00:05.668,89,84.3396682739258,96,0,
00:00:05.672,89,84.3396682739258,96,0,
00:00:05.676,89,83.6316452026367,96,0,
00:00:05.68,89,83.6316452026367,96,0,
00:00:05.684,89,83.6316452026367,96,0,
00:00:05.688,89,82.9358367919922,96,0,
00:00:05.692,89,82.9358367919922,96,0,
00:00:05.696,89,82.9358367919922,96,0,
00:00:05.7,89,82.9358367919922,96,0,
00:00:05.704,89,82.2912979125977,96,0,
00:00:05.708,89,82.2912979125977,96,0,
00:00:05.712,89,82.2912979125977,96,0,
00:00:05.716,89,81.7224349975586,96,0,
00:00:05.72,89,81.7224349975586,96,0,
00:00:05.724,89,81.7224349975586,96,0,
00:00:05.728,89,81.2536849975586,96,0,
00:00:05.732,89,81.2536849975586,96,0,
00:00:05.736,89,81.2536849975586,96,0,
00:00:05.74,89,81.2536849975586,96,0,
00:00:05.744,89,80.8972320556641,96,0,
00:00:05.748,89,80.8972320556641,96,0,
00:00:05.752,89,80.8972320556641,96,0,
00:00:05.756,89,80.6506423950195,96,0,
00:00:05.76,89,80.6506423950195,96,0,
00:00:05.764,89,80.6506423950195,96,0,
00:00:05.768,89,80.4919509887695,96,0,
00:00:05.772,89,80.4919509887695,96,0,
00:00:05.776,89,80.4919509887695,96,0,
00:00:05.78,89,80.4919509887695,96,0,
00:00:05.784,89,80.3991775512695,96,0,
00:00:05.788,89,80.3991775512695,96,0,
00:00:05.792,89,80.3991775512695,96,0,
00:00:05.796,89,80.3381423950195,96,0,
00:00:05.8,89,80.3381423950195,96,0,
00:00:05.804,89,80.3381423950195,96,0,
00:00:05.808,89,80.2746658325195,96,0,
00:00:05.812,89,80.2746658325195,96,0,
00:00:05.816,89,80.2746658325195,96,0,
00:00:05.82,89,80.2746658325195,96,0,
00:00:05.824,89,80.179443359375,96,0,
00:00:05.828,89,80.179443359375,96,0,
00:00:05.832,89,80.179443359375,96,0,
00:00:05.836,89,80.045166015625,96,0,
00:00:05.84,89,80.045166015625,96,0,
00:00:05.844,89,80.045166015625,96,0,
00:00:05.848,89,79.862060546875,96,0,
00:00:05.852,89,79.862060546875,96,0,
00:00:05.856,89,79.862060546875,96,0,
00:00:05.86,89,79.862060546875,96,0,
00:00:05.864,89,79.6423263549805,96,0,
00:00:05.868,89,79.6423263549805,96,0,
00:00:05.872,89,79.6423263549805,96,0,
00:00:05.876,89,79.3908615112305,96,0,
00:00:05.88,89,79.3908615112305,96,0,
00:00:05.884,89,79.3908615112305,96,0,
00:00:05.888,89,79.1174163818359,96,0,
00:00:05.892,89,79.1174163818359,96,0,
00:00:05.896,89,79.1174163818359,96,0,
00:00:05.9,89,79.1174163818359,96,0,
00:00:05.904,89,78.8342132568359,96,0,
00:00:05.908,89,78.8342132568359,96,0,
00:00:05.912,89,78.8342132568359,96,0,
00:00:05.916,89,78.5461196899414,96,0,
00:00:05.92,89,78.5461196899414,96,0,
00:00:05.924,89,78.5461196899414,96,0,
00:00:05.928,89,78.2555923461914,96,0,
00:00:05.932,89,78.2555923461914,96,0,
00:00:05.936,89,78.2555923461914,96,0,
00:00:05.94,89,78.2555923461914,96,0,
00:00:05.944,89,77.9748229980469,96,0,
00:00:05.948,89,77.9748229980469,96,0,
00:00:05.952,89,77.9748229980469,96,0,
00:00:05.956,89,77.7062606811523,96,0,
00:00:05.96,89,77.7062606811523,96,0,
00:00:05.964,89,77.7062606811523,96,0,
00:00:05.968,89,77.4523544311523,96,0,
00:00:05.972,89,77.4523544311523,96,0,
00:00:05.976,89,77.4523544311523,96,0,
00:00:05.98,89,77.4523544311523,96,0,
00:00:05.984,90,77.2130889892578,96,0,
00:00:05.988,90,77.2130889892578,96,0,
00:00:05.992,90,77.2130889892578,96,0,
00:00:05.996,90,76.9933624267578,96,0,
00:00:06,90,76.9933624267578,96,0,
00:00:06.004,90,76.9933624267578,96,0,
00:00:06.008,90,76.7858428955078,96,0,
00:00:06.012,90,76.7858428955078,96,0,
00:00:06.016,90,76.7858428955078,96,0,
00:00:06.02,90,76.7858428955078,96,0,
00:00:06.024,90,76.5929641723633,96,0,
00:00:06.028,90,76.5929641723633,96,0,
00:00:06.032,90,76.5929641723633,96,0,
00:00:06.036,90,76.4123001098633,96,0,
00:00:06.04,90,76.4123001098633,96,0,
00:00:06.044,90,76.4123001098633,96,0,
00:00:06.048,90,76.2487182617188,96,0,
00:00:06.052,90,76.2487182617188,96,0,
00:00:06.056,90,76.2487182617188,96,0,
00:00:06.06,90,76.2487182617188,96,0,
00:00:06.064,90,76.1046752929688,96,0,
00:00:06.068,90,76.1046752929688,96,0,
00:00:06.072,90,76.1046752929688,96,0,
00:00:06.076,90,75.9801635742188,96,0,
00:00:06.08,90,75.9801635742188,96,0,
00:00:06.084,90,75.9801635742188,96,0,
00:00:06.088,90,75.8800659179688,96,0,
00:00:06.092,90,75.8800659179688,96,0,
00:00:06.096,90,75.8800659179688,96,0,
00:00:06.1,90,75.8800659179688,96,0,
00:00:06.104,90,75.8068237304688,96,0,
00:00:06.108,90,75.8068237304688,96,0,
00:00:06.112,90,75.8068237304688,96,0,
00:00:06.116,90,75.7506713867188,96,0,
00:00:06.12,90,75.7506713867188,96,0,
00:00:06.124,90,75.7506713867188,96,0,
00:00:06.128,90,75.7067184448242,96,0,
00:00:06.132,90,75.7067184448242,96,0,
00:00:06.136,90,75.7067184448242,96,0,
00:00:06.14,90,75.7067184448242,96,0,
00:00:06.144,90,75.6774215698242,96,0,
00:00:06.148,90,75.6774215698242,96,0,
00:00:06.152,90,75.6774215698242,96,0,
00:00:06.156,90,75.6603317260742,96,0,
00:00:06.16,90,75.6603317260742,96,0,
00:00:06.164,90,75.6603317260742,96,0,
00:00:06.168,90,75.6383590698242,96,0,
00:00:06.172,90,75.6383590698242,96,0,
00:00:06.176,90,75.6383590698242,96,0,
00:00:06.18,90,75.6383590698242,96,0,
00:00:06.184,90,75.6115036010742,96,0,
00:00:06.188,90,75.6115036010742,96,0,
00:00:06.192,90,75.6115036010742,96,0,
00:00:06.196,90,75.5797653198242,96,0,
00:00:06.2,90,75.5797653198242,96,0,
00:00:06.204,90,75.5797653198242,96,0,
00:00:06.208,90,75.5626754760742,96,0,
00:00:06.212,90,75.5626754760742,96,0,
00:00:06.216,90,75.5626754760742,96,0,
00:00:06.22,90,75.5626754760742,96,0,
00:00:06.224,90,75.6212692260742,96,0,
00:00:06.228,90,75.6212692260742,96,0,
00:00:06.232,90,75.6212692260742,96,0,
00:00:06.236,90,75.8678588867188,96,0,
00:00:06.24,90,75.8678588867188,96,0,
00:00:06.244,90,75.8678588867188,96,0,
00:00:06.248,90,76.4220657348633,96,0,
00:00:06.252,90,76.4220657348633,96,0,
00:00:06.256,90,76.4220657348633,96,0,
00:00:06.26,90,76.4220657348633,96,0,
00:00:06.264,90,77.3498153686523,96,0,
00:00:06.268,90,77.3498153686523,96,0,
00:00:06.272,90,77.3498153686523,96,0,
00:00:06.276,90,78.6486587524414,96,0,
00:00:06.28,90,78.6486587524414,96,0,
00:00:06.284,90,78.6486587524414,96,0,
00:00:06.288,90,80.220947265625,96,0,
00:00:06.292,90,80.220947265625,96,0,
00:00:06.296,90,80.220947265625,96,0,
00:00:06.3,90,80.220947265625,96,0,
00:00:06.304,90,81.9006652832031,96,0,
00:00:06.308,90,81.9006652832031,96,0,
00:00:06.312,90,81.9006652832031,96,0,
00:00:06.316,90,83.4851608276367,96,0,
00:00:06.32,90,83.4851608276367,96,0,
00:00:06.324,90,83.4851608276367,96,0,
00:00:06.328,90,84.8059844970703,96,0,
00:00:06.332,90,84.8059844970703,96,0,
00:00:06.336,90,84.8059844970703,96,0,
00:00:06.34,90,84.8059844970703,96,0,
00:00:06.344,90,85.7581481933594,96,0,
00:00:06.348,90,85.7581481933594,96,0,
00:00:06.352,90,85.7581481933594,96,0,
00:00:06.356,90,86.3074722290039,96,0,
00:00:06.36,90,86.3074722290039,96,0,
00:00:06.364,90,86.3074722290039,96,0,
00:00:06.368,90,86.4759292602539,96,0,
00:00:06.372,90,86.4759292602539,96,0,
00:00:06.376,90,86.4759292602539,96,0,
00:00:06.38,90,86.4759292602539,96,0,
00:00:06.384,90,86.3270034790039,96,0,
00:00:06.388,90,86.3270034790039,96,0,
00:00:06.392,90,86.3270034790039,96,0,
00:00:06.396,90,85.9412536621094,96,0,
00:00:06.4,90,85.9412536621094,96,0,
00:00:06.404,90,85.9412536621094,96,0,
00:00:06.408,90,85.3919296264648,96,0,
00:00:06.412,90,85.3919296264648,96,0,
00:00:06.416,90,85.3919296264648,96,0,
00:00:06.42,90,85.3919296264648,96,0,
00:00:06.424,90,84.7376174926758,96,0,
00:00:06.428,90,84.7376174926758,96,0,
00:00:06.432,90,84.7376174926758,96,0,
00:00:06.436,90,84.0222778320313,96,0,
00:00:06.44,90,84.0222778320313,96,0,
00:00:06.444,90,84.0222778320313,96,0,
00:00:06.448,90,83.2849655151367,96,0,
00:00:06.452,90,83.2849655151367,96,0,
00:00:06.456,90,83.2849655151367,96,0,
00:00:06.46,90,83.2849655151367,96,0,
00:00:06.464,90,82.5622940063477,96,0,
00:00:06.468,90,82.5622940063477,96,0,
00:00:06.472,90,82.5622940063477,96,0,
00:00:06.476,90,81.8982238769531,96,0,
00:00:06.48,90,81.8982238769531,96,0,
00:00:06.484,90,81.8982238769531,96,0,
00:00:06.488,90,81.3269271850586,96,0,
00:00:06.492,90,81.3269271850586,96,0,
00:00:06.496,90,81.3269271850586,96,0,
00:00:06.5,90,81.3269271850586,96,0,
00:00:06.504,90,80.8777008056641,96,0,
00:00:06.508,90,80.8777008056641,96,0,
00:00:06.512,90,80.8777008056641,96,0,
00:00:06.516,90,80.5578689575195,96,0,
00:00:06.52,90,80.5578689575195,96,0,
00:00:06.524,90,80.5578689575195,96,0,
00:00:06.528,90,80.3625564575195,96,0,
00:00:06.532,90,80.3625564575195,96,0,
00:00:06.536,90,80.3625564575195,96,0,
00:00:06.54,90,80.3625564575195,96,0,
00:00:06.544,90,80.2722244262695,96,0,
00:00:06.548,90,80.2722244262695,96,0,
00:00:06.552,90,80.2722244262695,96,0,
00:00:06.556,90,80.2526931762695,96,0,
00:00:06.56,90,80.2526931762695,96,0,
00:00:06.564,90,80.2526931762695,96,0,
00:00:06.568,90,80.2673416137695,96,0,
00:00:06.572,90,80.2673416137695,96,0,
00:00:06.576,90,80.2673416137695,96,0,
00:00:06.58,90,80.2673416137695,96,0,
00:00:06.584,90,80.2771072387695,96,0,
00:00:06.588,90,80.2771072387695,96,0,
00:00:06.592,90,80.2771072387695,96,0,
00:00:06.596,90,80.2575759887695,96,0,
00:00:06.6,90,80.2575759887695,96,0,
00:00:06.604,90,80.2575759887695,96,0,
00:00:06.608,90,80.179443359375,96,0,
00:00:06.612,90,80.179443359375,96,0,
00:00:06.616,90,80.179443359375,96,0,
00:00:06.62,90,80.179443359375,96,0,
00:00:06.624,90,80.045166015625,96,0,
00:00:06.628,90,80.045166015625,96,0,
00:00:06.632,90,80.045166015625,96,0,
00:00:06.636,90,79.864501953125,96,0,
00:00:06.64,90,79.864501953125,96,0,
00:00:06.644,90,79.864501953125,96,0,
00:00:06.648,89,79.6447677612305,97,0,
00:00:06.652,89,79.6447677612305,97,0,
00:00:06.656,89,79.6447677612305,97,0,
00:00:06.66,89,79.6447677612305,97,0,
00:00:06.664,89,79.4055099487305,97,0,
00:00:06.668,89,79.4055099487305,97,0,
00:00:06.672,89,79.4055099487305,97,0,
00:00:06.676,89,79.1467132568359,97,0,
00:00:06.68,89,79.1467132568359,97,0,
00:00:06.684,89,79.1467132568359,97,0,
00:00:06.688,89,78.8879241943359,97,0,
00:00:06.692,89,78.8879241943359,97,0,
00:00:06.696,89,78.8879241943359,97,0,
00:00:06.7,89,78.8879241943359,97,0,
00:00:06.704,89,78.6315689086914,97,0,
00:00:06.708,89,78.6315689086914,97,0,
00:00:06.712,89,78.6315689086914,97,0,
00:00:06.716,89,78.3776626586914,97,0,
00:00:06.72,89,78.3776626586914,97,0,
00:00:06.724,89,78.3776626586914,97,0,
00:00:06.728,89,78.1335144042969,97,0,
00:00:06.732,89,78.1335144042969,97,0,
00:00:06.736,89,78.1335144042969,97,0,
00:00:06.74,89,78.1335144042969,97,0,
00:00:06.744,89,77.9015808105469,97,0,
00:00:06.748,89,77.9015808105469,97,0,
00:00:06.752,89,77.9015808105469,97,0,
00:00:06.756,89,77.6842880249023,97,0,
00:00:06.76,89,77.6842880249023,97,0,
00:00:06.764,89,77.6842880249023,97,0,
00:00:06.768,89,77.4767684936523,97,0,
00:00:06.772,89,77.4767684936523,97,0,
00:00:06.776,89,77.4767684936523,97,0,
00:00:06.78,89,77.4767684936523,97,0,
00:00:06.784,89,77.2838973999023,97,0,
00:00:06.788,89,77.2838973999023,97,0,
00:00:06.792,89,77.2838973999023,97,0,
00:00:06.796,89,77.0959014892578,97,0,
00:00:06.8,89,77.0959014892578,97,0,
00:00:06.804,89,77.0959014892578,97,0,
00:00:06.808,89,76.9250030517578,97,0,
00:00:06.812,89,76.9250030517578,97,0,
00:00:06.816,89,76.9250030517578,97,0,
00:00:06.82,89,76.9250030517578,97,0,
00:00:06.824,89,76.7711944580078,97,0,
00:00:06.828,89,76.7711944580078,97,0,
00:00:06.832,89,76.7711944580078,97,0,
00:00:06.836,89,76.6320266723633,97,0,
00:00:06.84,89,76.6320266723633,97,0,
00:00:06.844,89,76.6320266723633,97,0,
00:00:06.848,89,76.5123977661133,97,0,
00:00:06.852,89,76.5123977661133,97,0,
00:00:06.856,89,76.5123977661133,97,0,
00:00:06.86,89,76.5123977661133,97,0,
00:00:06.864,89,76.4147415161133,97,0,
00:00:06.868,89,76.4147415161133,97,0,
00:00:06.872,89,76.4147415161133,97,0,
00:00:06.876,89,76.3341751098633,97,0,
00:00:06.88,89,76.3341751098633,97,0,
00:00:06.884,89,76.3341751098633,97,0,
00:00:06.888,89,76.2731399536133,97,0,
00:00:06.892,89,76.2731399536133,97,0,
00:00:06.896,89,76.2731399536133,97,0,
00:00:06.9,89,76.2731399536133,97,0,
00:00:06.904,89,76.2291870117188,97,0,
00:00:06.908,89,76.2291870117188,97,0,
00:00:06.912,89,76.2291870117188,97,0,
00:00:06.916,89,76.2023315429688,97,0,
00:00:06.92,89,76.2023315429688,97,0,
00:00:06.924,89,76.2023315429688,97,0,
00:00:06.928,89,76.1828002929688,97,0,
00:00:06.932,89,76.1828002929688,97,0,
00:00:06.936,89,76.1828002929688,97,0,
00:00:06.94,89,76.1828002929688,97,0,
00:00:06.944,89,76.1657104492188,97,0,
00:00:06.948,89,76.1657104492188,97,0,
00:00:06.952,89,76.1657104492188,97,0,
00:00:06.956,89,76.1388549804688,97,0,
00:00:06.96,89,76.1388549804688,97,0,
00:00:06.964,89,76.1388549804688,97,0,
00:00:06.968,89,76.0997924804688,97,0,
00:00:06.972,89,76.0997924804688,97,0,
00:00:06.976,89,76.0997924804688,97,0,
00:00:06.98,89,76.0997924804688,97,0,
00:00:06.984,89,76.0436401367188,97,0,
00:00:06.988,89,76.0436401367188,97,0,
00:00:06.992,89,76.0436401367188,97,0,
00:00:06.996,89,75.9826049804688,97,0,
00:00:07,89,75.9826049804688,97,0,
00:00:07.004,89,75.9826049804688,97,0,
00:00:07.008,89,75.9630737304688,97,0,
00:00:07.012,89,75.9630737304688,97,0,
00:00:07.016,89,75.9630737304688,97,0,
00:00:07.02,89,75.9630737304688,97,0,
00:00:07.024,89,76.0680541992188,97,0,
00:00:07.028,89,76.0680541992188,97,0,
00:00:07.032,89,76.0680541992188,97,0,
00:00:07.036,89,76.4196243286133,97,0,
00:00:07.04,89,76.4196243286133,97,0,
00:00:07.044,89,76.4196243286133,97,0,
00:00:07.048,89,77.1227569580078,97,0,
00:00:07.052,89,77.1227569580078,97,0,
00:00:07.056,89,77.1227569580078,97,0,
00:00:07.06,89,77.1227569580078,97,0,
00:00:07.064,89,78.2287292480469,97,0,
00:00:07.068,89,78.2287292480469,97,0,
00:00:07.072,89,78.2287292480469,97,0,
00:00:07.076,89,79.6911544799805,97,0,
00:00:07.08,89,79.6911544799805,97,0,
00:00:07.084,89,79.6911544799805,97,0,
00:00:07.088,89,81.3806381225586,97,0,
00:00:07.092,89,81.3806381225586,97,0,
00:00:07.096,89,81.3806381225586,97,0,
00:00:07.1,89,81.3806381225586,97,0,
00:00:07.104,89,83.1116180419922,97,0,
00:00:07.108,89,83.1116180419922,97,0,
00:00:07.112,89,83.1116180419922,97,0,
00:00:07.116,89,84.6839065551758,97,0,
00:00:07.12,89,84.6839065551758,97,0,
00:00:07.124,89,84.6839065551758,97,0,
00:00:07.128,89,85.9436950683594,97,0,
00:00:07.132,89,85.9436950683594,97,0,
00:00:07.136,89,85.9436950683594,97,0,
00:00:07.14,89,85.9436950683594,97,0,
00:00:07.144,89,86.8128509521484,97,0,
00:00:07.148,89,86.8128509521484,97,0,
00:00:07.152,89,86.8128509521484,97,0,
00:00:07.156,89,87.276725769043,97,0,
00:00:07.16,89,87.276725769043,97,0,
00:00:07.164,89,87.276725769043,97,0,
00:00:07.168,89,87.367057800293,97,0,
00:00:07.172,89,87.367057800293,97,0,
00:00:07.176,89,87.367057800293,97,0,
00:00:07.18,89,87.367057800293,97,0,
00:00:07.184,89,87.1546478271484,97,0,
00:00:07.188,89,87.1546478271484,97,0,
00:00:07.192,89,87.1546478271484,97,0,
00:00:07.196,89,86.7176284790039,97,0,
00:00:07.2,89,86.7176284790039,97,0,
00:00:07.204,89,86.7176284790039,97,0,
00:00:07.208,89,86.1365661621094,97,0,
00:00:07.212,89,86.1365661621094,97,0,
00:00:07.216,89,86.1365661621094,97,0,
00:00:07.22,89,86.1365661621094,97,0,
00:00:07.224,89,85.4676132202148,97,0,
00:00:07.228,89,85.4676132202148,97,0,
00:00:07.232,89,85.4676132202148,97,0,
00:00:07.236,89,84.7449417114258,97,0,
00:00:07.24,89,84.7449417114258,97,0,
00:00:07.244,89,84.7449417114258,97,0,
00:00:07.248,89,84.0003051757813,97,0,
00:00:07.252,89,84.0003051757813,97,0,
00:00:07.256,89,84.0003051757813,97,0,
00:00:07.26,89,84.0003051757813,97,0,
00:00:07.264,89,83.2703170776367,97,0,
00:00:07.268,89,83.2703170776367,97,0,
00:00:07.272,89,83.2703170776367,97,0,
00:00:07.276,89,82.5891494750977,97,0,
00:00:07.28,89,82.5891494750977,97,0,
00:00:07.284,89,82.5891494750977,97,0,
00:00:07.288,89,81.9861145019531,97,0,
00:00:07.292,89,81.9861145019531,97,0,
00:00:07.296,89,81.9861145019531,97,0,
00:00:07.3,89,81.9861145019531,97,0,
00:00:07.304,89,81.4856185913086,97,0,
00:00:07.308,89,81.4856185913086,97,0,
00:00:07.312,89,81.4856185913086,97,0,
00:00:07.316,87,81.1096343994141,97,0,
00:00:07.32,87,81.1096343994141,97,0,
00:00:07.324,87,81.1096343994141,97,0,
00:00:07.328,87,80.8532867431641,97,0,
00:00:07.332,87,80.8532867431641,97,0,
00:00:07.336,87,80.8532867431641,97,0,
00:00:07.34,87,80.8532867431641,97,0,
00:00:07.344,87,80.6945877075195,97,0,
00:00:07.348,87,80.6945877075195,97,0,
00:00:07.352,87,80.6945877075195,97,0,
00:00:07.356,87,80.6115798950195,97,0,
00:00:07.36,87,80.6115798950195,97,0,
00:00:07.364,87,80.6115798950195,97,0,
00:00:07.368,87,80.5725173950195,97,0,
00:00:07.372,87,80.5725173950195,97,0,
00:00:07.376,87,80.5725173950195,97,0,
00:00:07.38,87,80.5725173950195,97,0,
00:00:07.384,87,80.5383377075195,97,0,
00:00:07.388,87,80.5383377075195,97,0,
00:00:07.392,87,80.5383377075195,97,0,
00:00:07.396,87,80.4797439575195,97,0,
00:00:07.4,87,80.4797439575195,97,0,
00:00:07.404,87,80.4797439575195,97,0,
00:00:07.408,87,80.3747634887695,97,0,
00:00:07.412,87,80.3747634887695,97,0,
00:00:07.416,87,80.3747634887695,97,0,
00:00:07.42,87,80.3747634887695,97,0,
00:00:07.424,87,80.211181640625,97,0,
00:00:07.428,87,80.211181640625,97,0,
00:00:07.432,87,80.211181640625,97,0,
00:00:07.436,87,79.991455078125,97,0,
00:00:07.44,87,79.991455078125,97,0,
00:00:07.444,87,79.991455078125,97,0,
00:00:07.448,87,79.7302169799805,97,0,
00:00:07.452,87,79.7302169799805,97,0,
00:00:07.456,87,79.7302169799805,97,0,
00:00:07.46,87,79.7302169799805,97,0,
00:00:07.464,87,79.4323654174805,97,0,
00:00:07.468,87,79.4323654174805,97,0,
00:00:07.472,87,79.4323654174805,97,0,
00:00:07.476,87,79.1198577880859,97,0,
00:00:07.48,87,79.1198577880859,97,0,
00:00:07.484,87,79.1198577880859,97,0,
00:00:07.488,87,78.8024749755859,97,0,
00:00:07.492,87,78.8024749755859,97,0,
00:00:07.496,87,78.8024749755859,97,0,
00:00:07.5,87,78.8024749755859,97,0,
00:00:07.504,87,78.4826431274414,97,0,
00:00:07.508,87,78.4826431274414,97,0,
00:00:07.512,87,78.4826431274414,97,0,
00:00:07.516,87,78.1725769042969,97,0,
00:00:07.52,87,78.1725769042969,97,0,
00:00:07.524,87,78.1725769042969,97,0,
00:00:07.528,87,77.8771667480469,97,0,
00:00:07.532,87,77.8771667480469,97,0,
00:00:07.536,87,77.8771667480469,97,0,
00:00:07.54,87,77.8771667480469,97,0,
00:00:07.544,87,77.5963973999023,97,0,
00:00:07.548,87,77.5963973999023,97,0,
00:00:07.552,87,77.5963973999023,97,0,
00:00:07.556,87,77.3376083374023,97,0,
00:00:07.56,87,77.3376083374023,97,0,
00:00:07.564,87,77.3376083374023,97,0,
00:00:07.568,87,77.1032257080078,97,0,
00:00:07.572,87,77.1032257080078,97,0,
00:00:07.576,87,77.1032257080078,97,0,
00:00:07.58,87,77.1032257080078,97,0,
00:00:07.584,87,76.8883819580078,97,0,
00:00:07.588,87,76.8883819580078,97,0,
00:00:07.592,87,76.8883819580078,97,0,
00:00:07.596,87,76.6979446411133,97,0,
00:00:07.6,87,76.6979446411133,97,0,
00:00:07.604,87,76.6979446411133,97,0,
00:00:07.608,87,76.5270462036133,97,0,
00:00:07.612,87,76.5270462036133,97,0,
00:00:07.616,87,76.5270462036133,97,0,
00:00:07.62,87,76.5270462036133,97,0,
00:00:07.624,87,76.3781204223633,97,0,
00:00:07.628,87,76.3781204223633,97,0,
00:00:07.632,87,76.3781204223633,97,0,
00:00:07.636,87,76.2511672973633,97,0,
00:00:07.64,87,76.2511672973633,97,0,
00:00:07.644,87,76.2511672973633,97,0,
00:00:07.648,87,76.1461791992188,97,0,
00:00:07.652,87,76.1461791992188,97,0,
00:00:07.656,87,76.1461791992188,97,0,
00:00:07.66,87,76.1461791992188,97,0,
00:00:07.664,87,76.0607299804688,97,0,
00:00:07.668,87,76.0607299804688,97,0,
00:00:07.672,87,76.0607299804688,97,0,
00:00:07.676,87,75.9899291992188,97,0,
00:00:07.68,87,75.9899291992188,97,0,
00:00:07.684,87,75.9899291992188,97,0,
00:00:07.688,87,75.9313354492188,97,0,
00:00:07.692,87,75.9313354492188,97,0,
00:00:07.696,87,75.9313354492188,97,0,
00:00:07.7,87,75.9313354492188,97,0,
00:00:07.704,87,75.8825073242188,97,0,
00:00:07.708,87,75.8825073242188,97,0,
00:00:07.712,87,75.8825073242188,97,0,
00:00:07.716,87,75.8410034179688,97,0,
00:00:07.72,87,75.8410034179688,97,0,
00:00:07.724,87,75.8410034179688,97,0,
00:00:07.728,87,75.8019409179688,97,0,
00:00:07.732,87,75.8019409179688,97,0,
00:00:07.736,87,75.8019409179688,97,0,
00:00:07.74,87,75.8019409179688,97,0,
00:00:07.744,87,75.7702026367188,97,0,
00:00:07.748,87,75.7702026367188,97,0,
00:00:07.752,87,75.7702026367188,97,0,
00:00:07.756,87,75.7360153198242,97,0,
00:00:07.76,87,75.7360153198242,97,0,
00:00:07.764,87,75.7360153198242,97,0,
00:00:07.768,87,75.6920700073242,97,0,
00:00:07.772,87,75.6920700073242,97,0,
00:00:07.776,87,75.6920700073242,97,0,
00:00:07.78,87,75.6920700073242,97,0,
00:00:07.784,87,75.6408004760742,97,0,
00:00:07.788,87,75.6408004760742,97,0,
00:00:07.792,87,75.6408004760742,97,0,
00:00:07.796,87,75.5968551635742,97,0,
00:00:07.8,87,75.5968551635742,97,0,
00:00:07.804,87,75.5968551635742,97,0,
00:00:07.808,87,75.6188278198242,97,0,
00:00:07.812,87,75.6188278198242,97,0,
00:00:07.816,87,75.6188278198242,97,0,
00:00:07.82,87,75.6188278198242,97,0,
00:00:07.824,87,75.8190307617188,97,0,
00:00:07.828,87,75.8190307617188,97,0,
00:00:07.832,87,75.8190307617188,97,0,
00:00:07.836,87,76.3268508911133,97,0,
00:00:07.84,87,76.3268508911133,97,0,
00:00:07.844,87,76.3268508911133,97,0,
00:00:07.848,87,77.2423858642578,97,0,
00:00:07.852,87,77.2423858642578,97,0,
00:00:07.856,87,77.2423858642578,97,0,
00:00:07.86,87,77.2423858642578,97,0,
00:00:07.864,87,78.5876235961914,97,0,
00:00:07.868,87,78.5876235961914,97,0,
00:00:07.872,87,78.5876235961914,97,0,
00:00:07.876,87,80.2893142700195,97,0,
00:00:07.88,87,80.2893142700195,97,0,
00:00:07.884,87,80.2893142700195,97,0,
00:00:07.888,87,82.1716613769531,97,0,
00:00:07.892,87,82.1716613769531,97,0,
00:00:07.896,87,82.1716613769531,97,0,
00:00:07.9,87,82.1716613769531,97,0,
00:00:07.904,87,84.0271606445313,97,0,
00:00:07.908,87,84.0271606445313,97,0,
00:00:07.912,87,84.0271606445313,97,0,
00:00:07.916,87,85.6629257202148,97,0,
00:00:07.92,87,85.6629257202148,97,0,
00:00:07.924,87,85.6629257202148,97,0,
00:00:07.928,87,86.9495697021484,97,0,
00:00:07.932,87,86.9495697021484,97,0,
00:00:07.936,87,86.9495697021484,97,0,
00:00:07.94,87,86.9495697021484,97,0,
00:00:07.944,87,87.8260498046875,97,0,
00:00:07.948,87,87.8260498046875,97,0,
00:00:07.952,87,87.8260498046875,97,0,
00:00:07.956,87,88.297248840332,97,0,
00:00:07.96,87,88.297248840332,97,0,
00:00:07.964,87,88.297248840332,97,0,
00:00:07.968,87,88.416877746582,97,0,
00:00:07.972,87,88.416877746582,97,0,
00:00:07.976,87,88.416877746582,97,0,
00:00:07.98,87,88.416877746582,97,0,
00:00:07.984,87,88.258186340332,97,0,
00:00:07.988,87,88.258186340332,97,0,
00:00:07.992,87,88.258186340332,97,0,
00:00:07.996,87,87.9041748046875,97,0,
00:00:08,87,87.9041748046875,97,0,
00:00:08.004,87,87.9041748046875,97,0,
00:00:08.008,87,87.423210144043,97,0,
00:00:08.012,87,87.423210144043,97,0,
00:00:08.016,87,87.423210144043,97,0,
00:00:08.02,87,87.423210144043,97,0,
00:00:08.024,87,86.8665618896484,97,0,
00:00:08.028,87,86.8665618896484,97,0,
00:00:08.032,87,86.8665618896484,97,0,
00:00:08.036,87,86.2586441040039,97,0,
00:00:08.04,87,86.2586441040039,97,0,
00:00:08.044,87,86.2586441040039,97,0,
00:00:08.048,87,85.6092147827148,97,0,
00:00:08.052,87,85.6092147827148,97,0,
00:00:08.056,87,85.6092147827148,97,0,
00:00:08.06,87,85.6092147827148,97,0,
00:00:08.064,87,84.9280548095703,97,0,
00:00:08.068,87,84.9280548095703,97,0,
00:00:08.072,87,84.9280548095703,97,0,
00:00:08.076,87,84.2322387695313,97,0,
00:00:08.08,87,84.2322387695313,97,0,
00:00:08.084,87,84.2322387695313,97,0,
00:00:08.088,87,83.5486373901367,97,0,
00:00:08.092,87,83.5486373901367,97,0,
00:00:08.096,87,83.5486373901367,97,0,
00:00:08.1,87,83.5486373901367,97,0,
00:00:08.104,87,82.9089813232422,97,0,
00:00:08.108,87,82.9089813232422,97,0,
00:00:08.112,87,82.9089813232422,97,0,
00:00:08.116,87,82.3474502563477,97,0,
00:00:08.12,87,82.3474502563477,97,0,
00:00:08.124,87,82.3474502563477,97,0,
00:00:08.128,87,81.8933410644531,97,0,
00:00:08.132,87,81.8933410644531,97,0,
00:00:08.136,87,81.8933410644531,97,0,
00:00:08.14,87,81.8933410644531,97,0,
00:00:08.144,87,81.5539779663086,97,0,
00:00:08.148,87,81.5539779663086,97,0,
00:00:08.152,87,81.5539779663086,97,0,
00:00:08.156,87,81.3147201538086,97,0,
00:00:08.16,87,81.3147201538086,97,0,
00:00:08.164,87,81.3147201538086,97,0,
00:00:08.168,87,81.1584625244141,97,0,
00:00:08.172,87,81.1584625244141,97,0,
00:00:08.176,87,81.1584625244141,97,0,
00:00:08.18,87,81.1584625244141,97,0,
00:00:08.184,87,81.0510406494141,97,0,
00:00:08.188,87,81.0510406494141,97,0,
00:00:08.192,87,81.0510406494141,97,0,
00:00:08.196,87,80.9582672119141,97,0,
00:00:08.2,87,80.9582672119141,97,0,
00:00:08.204,87,80.9582672119141,97,0,
00:00:08.208,87,80.8459625244141,97,0,
00:00:08.212,87,80.8459625244141,97,0,
00:00:08.216,87,80.8459625244141,97,0,
00:00:08.22,87,80.8459625244141,97,0,
00:00:08.224,87,80.6945877075195,97,0,
00:00:08.228,87,80.6945877075195,97,0,
00:00:08.232,87,80.6945877075195,97,0,
00:00:08.236,87,80.4919509887695,97,0,
00:00:08.24,87,80.4919509887695,97,0,
00:00:08.244,87,80.4919509887695,97,0,
00:00:08.248,87,80.240478515625,97,0,
00:00:08.252,87,80.240478515625,97,0,
00:00:08.256,87,80.240478515625,97,0,
00:00:08.26,87,80.240478515625,97,0,
00:00:08.264,87,79.947509765625,97,0,
00:00:08.268,87,79.947509765625,97,0,
00:00:08.272,87,79.947509765625,97,0,
00:00:08.276,87,79.6252365112305,97,0,
00:00:08.28,87,79.6252365112305,97,0,
00:00:08.284,87,79.6252365112305,97,0,
00:00:08.288,87,79.2907638549805,97,0,
00:00:08.292,87,79.2907638549805,97,0,
00:00:08.296,87,79.2907638549805,97,0,
00:00:08.3,87,79.2907638549805,97,0,
00:00:08.304,87,78.9465179443359,97,0,
00:00:08.308,87,78.9465179443359,97,0,
00:00:08.312,87,78.9465179443359,97,0,
00:00:08.316,84,78.6047134399414,97,0,
00:00:08.32,84,78.6047134399414,97,0,
00:00:08.324,84,78.6047134399414,97,0,
00:00:08.328,84,78.2702407836914,97,0,
00:00:08.332,84,78.2702407836914,97,0,
00:00:08.336,84,78.2702407836914,97,0,
00:00:08.34,84,78.2702407836914,97,0,
00:00:08.344,84,77.9479675292969,97,0,
00:00:08.348,84,77.9479675292969,97,0,
00:00:08.352,84,77.9479675292969,97,0,
00:00:08.356,84,77.6403427124023,97,0,
00:00:08.36,84,77.6403427124023,97,0,
00:00:08.364,84,77.6403427124023,97,0,
00:00:08.368,84,77.3522567749023,97,0,
00:00:08.372,84,77.3522567749023,97,0,
00:00:08.376,84,77.3522567749023,97,0,
00:00:08.38,84,77.3522567749023,97,0,
00:00:08.384,84,77.0812530517578,97,0,
00:00:08.388,84,77.0812530517578,97,0,
00:00:08.392,84,77.0812530517578,97,0,
00:00:08.396,84,76.8273468017578,97,0,
00:00:08.4,84,76.8273468017578,97,0,
00:00:08.404,84,76.8273468017578,97,0,
00:00:08.408,84,76.5954055786133,97,0,
00:00:08.412,84,76.5954055786133,97,0,
00:00:08.416,84,76.5954055786133,97,0,
00:00:08.42,84,76.5954055786133,97,0,
00:00:08.424,84,76.3830032348633,97,0,
00:00:08.428,84,76.3830032348633,97,0,
00:00:08.432,84,76.3830032348633,97,0,
00:00:08.436,84,76.1876831054688,97,0,
00:00:08.44,84,76.1876831054688,97,0,
00:00:08.444,84,76.1876831054688,97,0,
00:00:08.448,84,76.0143432617188,97,0,
00:00:08.452,84,76.0143432617188,97,0,
00:00:08.456,84,76.0143432617188,97,0,
00:00:08.46,84,76.0143432617188,97,0,
00:00:08.464,84,75.8605346679688,97,0,
00:00:08.468,84,75.8605346679688,97,0,
00:00:08.472,84,75.8605346679688,97,0,
00:00:08.476,84,75.7286911010742,97,0,
00:00:08.48,84,75.7286911010742,97,0,
00:00:08.484,84,75.7286911010742,97,0,
00:00:08.488,84,75.6163864135742,97,0,
00:00:08.492,84,75.6163864135742,97,0,
00:00:08.496,84,75.6163864135742,97,0,
00:00:08.5,84,75.6163864135742,97,0,
00:00:08.504,84,75.5260543823242,97,0,
00:00:08.508,84,75.5260543823242,97,0,
00:00:08.512,84,75.5260543823242,97,0,
00:00:08.516,84,75.4552536010742,97,0,
00:00:08.52,84,75.4552536010742,97,0,
00:00:08.524,84,75.4552536010742,97,0,
00:00:08.528,84,75.3991012573242,97,0,
00:00:08.532,84,75.3991012573242,97,0,
00:00:08.536,84,75.3991012573242,97,0,
00:00:08.54,84,75.3991012573242,97,0,
00:00:08.544,84,75.3551559448242,97,0,
00:00:08.548,84,75.3551559448242,97,0,
00:00:08.552,84,75.3551559448242,97,0,
00:00:08.556,84,75.3185348510742,97,0,
00:00:08.56,84,75.3185348510742,97,0,
00:00:08.564,84,75.3185348510742,97,0,
00:00:08.568,84,75.2867965698242,97,0,
00:00:08.572,84,75.2867965698242,97,0,
00:00:08.576,84,75.2867965698242,97,0,
00:00:08.58,84,75.2867965698242,97,0,
00:00:08.584,84,75.2574996948242,97,0,
00:00:08.588,84,75.2574996948242,97,0,
00:00:08.592,84,75.2574996948242,97,0,
00:00:08.596,84,75.2281951904297,97,0,
00:00:08.6,84,75.2281951904297,97,0,
00:00:08.604,84,75.2281951904297,97,0,
00:00:08.608,84,75.1940155029297,97,0,
00:00:08.612,84,75.1940155029297,97,0,
00:00:08.616,84,75.1940155029297,97,0,
00:00:08.62,84,75.1940155029297,97,0,
00:00:08.624,84,75.1622772216797,97,0,
00:00:08.628,84,75.1622772216797,97,0,
00:00:08.632,84,75.1622772216797,97,0,
00:00:08.636,84,75.1598358154297,97,0,
00:00:08.64,84,75.1598358154297,97,0,
00:00:08.644,84,75.1598358154297,97,0,
00:00:08.648,84,75.2648239135742,97,0,
00:00:08.652,84,75.2648239135742,97,0,
00:00:08.656,84,75.2648239135742,97,0,
00:00:08.66,84,75.2648239135742,97,0,
00:00:08.664,84,75.5944137573242,97,0,
00:00:08.668,84,75.5944137573242,97,0,
00:00:08.672,84,75.5944137573242,97,0,
00:00:08.676,84,76.2877883911133,97,0,
00:00:08.68,84,76.2877883911133,97,0,
00:00:08.684,84,76.2877883911133,97,0,
00:00:08.688,84,77.4206161499023,97,0,
00:00:08.692,84,77.4206161499023,97,0,
00:00:08.696,84,77.4206161499023,97,0,
00:00:08.7,84,77.4206161499023,97,0,
00:00:08.704,84,78.9904632568359,97,0,
00:00:08.708,84,78.9904632568359,97,0,
00:00:08.712,84,78.9904632568359,97,0,
00:00:08.716,84,80.8850250244141,97,0,
00:00:08.72,84,80.8850250244141,97,0,
00:00:08.724,84,80.8850250244141,97,0,
00:00:08.728,84,82.9138641357422,97,0,
00:00:08.732,84,82.9138641357422,97,0,
00:00:08.736,84,82.9138641357422,97,0,
00:00:08.74,84,82.9138641357422,97,0,
00:00:08.744,84,84.8499298095703,97,0,
00:00:08.748,84,84.8499298095703,97,0,
00:00:08.752,84,84.8499298095703,97,0,
00:00:08.756,84,86.5125503540039,97,0,
00:00:08.76,84,86.5125503540039,97,0,
00:00:08.764,84,86.5125503540039,97,0,
00:00:08.768,84,87.7869873046875,97,0,
00:00:08.772,84,87.7869873046875,97,0,
00:00:08.776,84,87.7869873046875,97,0,
00:00:08.78,84,87.7869873046875,97,0,
00:00:08.784,84,88.634162902832,97,0,
00:00:08.788,84,88.634162902832,97,0,
00:00:08.792,84,88.634162902832,97,0,
00:00:08.796,84,89.0809478759766,97,0,
00:00:08.8,84,89.0809478759766,97,0,
00:00:08.804,84,89.0809478759766,97,0,
00:00:08.808,84,89.1834869384766,97,0,
00:00:08.812,84,89.1834869384766,97,0,
00:00:08.816,84,89.1834869384766,97,0,
00:00:08.82,84,89.1834869384766,97,0,
00:00:08.824,84,89.0174713134766,97,0,
00:00:08.828,84,89.0174713134766,97,0,
00:00:08.832,84,89.0174713134766,97,0,
00:00:08.836,84,88.668342590332,97,0,
00:00:08.84,84,88.668342590332,97,0,
00:00:08.844,84,88.668342590332,97,0,
00:00:08.848,84,88.1922607421875,97,0,
00:00:08.852,84,88.1922607421875,97,0,
00:00:08.856,84,88.1922607421875,97,0,
00:00:08.86,84,88.1922607421875,97,0,
00:00:08.864,84,87.625846862793,97,0,
00:00:08.868,84,87.625846862793,97,0,
00:00:08.872,84,87.625846862793,97,0,
00:00:08.876,84,86.9861907958984,97,0,
00:00:08.88,84,86.9861907958984,97,0,
00:00:08.884,84,86.9861907958984,97,0,
00:00:08.888,84,86.2854995727539,97,0,
00:00:08.892,84,86.2854995727539,97,0,
00:00:08.896,84,86.2854995727539,97,0,
00:00:08.9,84,86.2854995727539,97,0,
00:00:08.904,84,85.5335311889648,97,0,
00:00:08.908,84,85.5335311889648,97,0,
00:00:08.912,84,85.5335311889648,97,0,
00:00:08.916,84,84.7547149658203,97,0,
00:00:08.92,84,84.7547149658203,97,0,
00:00:08.924,84,84.7547149658203,97,0,
00:00:08.928,84,83.9807739257813,97,0,
00:00:08.932,84,83.9807739257813,97,0,
00:00:08.936,84,83.9807739257813,97,0,
00:00:08.94,84,83.9807739257813,97,0,
00:00:08.944,84,83.2483367919922,97,0,
00:00:08.948,84,83.2483367919922,97,0,
00:00:08.952,84,83.2483367919922,97,0,
00:00:08.956,84,82.5989151000977,97,0,
00:00:08.96,84,82.5989151000977,97,0,
00:00:08.964,84,82.5989151000977,97,0,
00:00:08.968,84,82.0593566894531,97,0,
00:00:08.972,84,82.0593566894531,97,0,
00:00:08.976,84,82.0593566894531,97,0,
00:00:08.98,84,82.0593566894531,97,0,
00:00:08.984,82,81.6321029663086,97,0,
00:00:08.988,82,81.6321029663086,97,0,
00:00:08.992,82,81.6321029663086,97,0,
00:00:08.996,82,81.3171615600586,97,0,
00:00:09,82,81.3171615600586,97,0,
00:00:09.004,82,81.3171615600586,97,0,
00:00:09.008,82,81.0876617431641,97,0,
00:00:09.012,82,81.0876617431641,97,0,
00:00:09.016,82,81.0876617431641,97,0,
00:00:09.02,82,81.0876617431641,97,0,
00:00:09.024,82,80.9143218994141,97,0,
00:00:09.028,82,80.9143218994141,97,0,
00:00:09.032,82,80.9143218994141,97,0,
00:00:09.036,82,80.7605133056641,97,0,
00:00:09.04,82,80.7605133056641,97,0,
00:00:09.044,82,80.7605133056641,97,0,
00:00:09.048,82,80.5993728637695,97,0,
00:00:09.052,82,80.5993728637695,97,0,
00:00:09.056,82,80.5993728637695,97,0,
00:00:09.06,82,80.5993728637695,97,0,
00:00:09.064,82,80.4089431762695,97,0,
00:00:09.068,82,80.4089431762695,97,0,
00:00:09.072,82,80.4089431762695,97,0,
00:00:09.076,82,80.169677734375,97,0,
00:00:09.08,82,80.169677734375,97,0,
00:00:09.084,82,80.169677734375,97,0,
00:00:09.088,82,79.888916015625,97,0,
00:00:09.092,82,79.888916015625,97,0,
00:00:09.096,82,79.888916015625,97,0,
00:00:09.1,82,79.888916015625,97,0,
00:00:09.104,82,79.5715255737305,97,0,
00:00:09.108,82,79.5715255737305,97,0,
00:00:09.112,82,79.5715255737305,97,0,
00:00:09.116,82,79.2199554443359,97,0,
00:00:09.12,82,79.2199554443359,97,0,
00:00:09.124,82,79.2199554443359,97,0,
00:00:09.128,82,78.8537445068359,97,0,
00:00:09.132,82,78.8537445068359,97,0,
00:00:09.136,82,78.8537445068359,97,0,
00:00:09.14,82,78.8537445068359,97,0,
00:00:09.144,82,78.4802017211914,97,0,
00:00:09.148,82,78.4802017211914,97,0,
00:00:09.152,82,78.4802017211914,97,0,
00:00:09.156,82,78.1017761230469,97,0,
00:00:09.16,82,78.1017761230469,97,0,
00:00:09.164,82,78.1017761230469,97,0,
00:00:09.168,82,77.7355575561523,97,0,
00:00:09.172,82,77.7355575561523,97,0,
00:00:09.176,82,77.7355575561523,97,0,
00:00:09.18,82,77.7355575561523,97,0,
00:00:09.184,82,77.3864364624023,97,0,
00:00:09.188,82,77.3864364624023,97,0,
00:00:09.192,82,77.3864364624023,97,0,
00:00:09.196,82,77.0543975830078,97,0,
00:00:09.2,82,77.0543975830078,97,0,
00:00:09.204,82,77.0543975830078,97,0,
00:00:09.208,82,76.7443313598633,97,0,
00:00:09.212,82,76.7443313598633,97,0,
00:00:09.216,82,76.7443313598633,97,0,
00:00:09.22,82,76.7443313598633,97,0,
00:00:09.224,82,76.4513626098633,97,0,
00:00:09.228,82,76.4513626098633,97,0,
00:00:09.232,82,76.4513626098633,97,0,
00:00:09.236,82,76.1803588867188,97,0,
00:00:09.24,82,76.1803588867188,97,0,
00:00:09.244,82,76.1803588867188,97,0,
00:00:09.248,82,75.9288940429688,97,0,
00:00:09.252,82,75.9288940429688,97,0,
00:00:09.256,82,75.9288940429688,97,0,
00:00:09.26,82,75.9288940429688,97,0,
00:00:09.264,82,75.7018356323242,97,0,
00:00:09.268,82,75.7018356323242,97,0,
00:00:09.272,82,75.7018356323242,97,0,
00:00:09.276,82,75.5065231323242,97,0,
00:00:09.28,82,75.5065231323242,97,0,
00:00:09.284,82,75.5065231323242,97,0,
00:00:09.288,82,75.3380661010742,97,0,
00:00:09.292,82,75.3380661010742,97,0,
00:00:09.296,82,75.3380661010742,97,0,
00:00:09.3,82,75.3380661010742,97,0,
00:00:09.304,82,75.1964569091797,97,0,
00:00:09.308,82,75.1964569091797,97,0,
00:00:09.312,82,75.1964569091797,97,0,
00:00:09.316,82,75.0768280029297,97,0,
00:00:09.32,82,75.0768280029297,97,0,
00:00:09.324,82,75.0768280029297,97,0,
00:00:09.328,82,74.9767303466797,97,0,
00:00:09.332,82,74.9767303466797,97,0,
00:00:09.336,82,74.9767303466797,97,0,
00:00:09.34,82,74.9767303466797,97,0,
00:00:09.344,82,74.8912811279297,97,0,
00:00:09.348,82,74.8912811279297,97,0,
00:00:09.352,82,74.8912811279297,97,0,
00:00:09.356,82,74.8180389404297,97,0,
00:00:09.36,82,74.8180389404297,97,0,
00:00:09.364,82,74.8180389404297,97,0,
00:00:09.368,82,74.7570037841797,97,0,
00:00:09.372,82,74.7570037841797,97,0,
00:00:09.376,82,74.7570037841797,97,0,
00:00:09.38,82,74.7570037841797,97,0,
00:00:09.384,82,74.7106094360352,97,0,
00:00:09.388,82,74.7106094360352,97,0,
00:00:09.392,82,74.7106094360352,97,0,
00:00:09.396,82,74.6739883422852,97,0,
00:00:09.4,82,74.6739883422852,97,0,
00:00:09.404,82,74.6739883422852,97,0,
00:00:09.408,82,74.6471328735352,97,0,
00:00:09.412,82,74.6471328735352,97,0,
00:00:09.416,82,74.6471328735352,97,0,
00:00:09.42,82,74.6471328735352,97,0,
00:00:09.424,82,74.6276016235352,97,0,
00:00:09.428,82,74.6276016235352,97,0,
00:00:09.432,82,74.6276016235352,97,0,
00:00:09.436,82,74.6105117797852,97,0,
00:00:09.44,82,74.6105117797852,97,0,
00:00:09.444,82,74.6105117797852,97,0,
00:00:09.448,82,74.5909805297852,97,0,
00:00:09.452,82,74.5909805297852,97,0,
00:00:09.456,82,74.5909805297852,97,0,
00:00:09.46,82,74.5909805297852,97,0,
00:00:09.464,82,74.5690078735352,97,0,
00:00:09.468,82,74.5690078735352,97,0,
00:00:09.472,82,74.5690078735352,97,0,
00:00:09.476,82,74.5470352172852,97,0,
00:00:09.48,82,74.5470352172852,97,0,
00:00:09.484,82,74.5470352172852,97,0,
00:00:09.488,82,74.5275039672852,97,0,
00:00:09.492,82,74.5275039672852,97,0,
00:00:09.496,82,74.5275039672852,97,0,
00:00:09.5,82,74.5275039672852,97,0,
00:00:09.504,82,74.5177383422852,97,0,
00:00:09.508,82,74.5177383422852,97,0,
00:00:09.512,82,74.5177383422852,97,0,
00:00:09.516,82,74.5738906860352,97,0,
00:00:09.52,82,74.5738906860352,97,0,
00:00:09.524,82,74.5738906860352,97,0,
00:00:09.528,82,74.8058319091797,97,0,
00:00:09.532,82,74.8058319091797,97,0,
00:00:09.536,82,74.8058319091797,97,0,
00:00:09.54,82,74.8058319091797,97,0,
00:00:09.544,82,75.3405075073242,97,0,
00:00:09.548,82,75.3405075073242,97,0,
00:00:09.552,82,75.3405075073242,97,0,
00:00:09.556,82,76.2975540161133,97,0,
00:00:09.56,82,76.2975540161133,97,0,
00:00:09.564,82,76.2975540161133,97,0,
00:00:09.568,82,77.7135848999023,97,0,
00:00:09.572,82,77.7135848999023,97,0,
00:00:09.576,82,77.7135848999023,97,0,
00:00:09.58,82,77.7135848999023,97,0,
00:00:09.584,82,79.5275802612305,97,0,
00:00:09.588,82,79.5275802612305,97,0,
00:00:09.592,82,79.5275802612305,97,0,
00:00:09.596,82,81.5661849975586,97,0,
00:00:09.6,82,81.5661849975586,97,0,
00:00:09.604,82,81.5661849975586,97,0,
00:00:09.608,82,83.6121139526367,97,0,
00:00:09.612,82,83.6121139526367,97,0,
00:00:09.616,82,83.6121139526367,97,0,
00:00:09.62,82,83.6121139526367,97,0,
00:00:09.624,82,85.4505233764648,97,0,
00:00:09.628,82,85.4505233764648,97,0,
00:00:09.632,82,85.4505233764648,97,0,
00:00:09.636,82,86.9324798583984,97,0,
00:00:09.64,82,86.9324798583984,97,0,
00:00:09.644,82,86.9324798583984,97,0,
00:00:09.648,82,87.9774169921875,97,0,
00:00:09.652,82,87.9774169921875,97,0,
00:00:09.656,82,87.9774169921875,97,0,
00:00:09.66,82,87.9774169921875,97,0,
00:00:09.664,82,88.580451965332,97,0,
00:00:09.668,82,88.580451965332,97,0,
00:00:09.672,82,88.580451965332,97,0,
00:00:09.676,82,88.7879791259766,97,0,
00:00:09.68,82,88.7879791259766,97,0,
00:00:09.684,82,88.7879791259766,97,0,
00:00:09.688,82,88.673225402832,97,0,
00:00:09.692,82,88.673225402832,97,0,
00:00:09.696,82,88.673225402832,97,0,
00:00:09.7,82,88.673225402832,97,0,
00:00:09.704,82,88.326545715332,97,0,
00:00:09.708,82,88.326545715332,97,0,
00:00:09.712,82,88.326545715332,97,0,
00:00:09.716,82,87.8284912109375,97,0,
00:00:09.72,82,87.8284912109375,97,0,
00:00:09.724,82,87.8284912109375,97,0,
00:00:09.728,82,87.2352142333984,97,0,
00:00:09.732,82,87.2352142333984,97,0,
00:00:09.736,82,87.2352142333984,97,0,
00:00:09.74,82,87.2352142333984,97,0,
00:00:09.744,82,86.5735855102539,97,0,
00:00:09.748,82,86.5735855102539,97,0,
00:00:09.752,82,86.5735855102539,97,0,
00:00:09.756,82,85.8655700683594,97,0,
00:00:09.76,82,85.8655700683594,97,0,
00:00:09.764,82,85.8655700683594,97,0,
00:00:09.768,82,85.1209259033203,97,0,
00:00:09.772,82,85.1209259033203,97,0,
00:00:09.776,82,85.1209259033203,97,0,
00:00:09.78,82,85.1209259033203,97,0,
00:00:09.784,82,84.3640823364258,97,0,
00:00:09.788,82,84.3640823364258,97,0,
00:00:09.792,82,84.3640823364258,97,0,
00:00:09.796,82,83.6218795776367,97,0,
00:00:09.8,82,83.6218795776367,97,0,
00:00:09.804,82,83.6218795776367,97,0,
00:00:09.808,82,82.9285125732422,97,0,
00:00:09.812,82,82.9285125732422,97,0,
00:00:09.816,82,82.9285125732422,97,0,
00:00:09.82,82,82.9285125732422,97,0,
00:00:09.824,82,82.3230361938477,97,0,
00:00:09.828,82,82.3230361938477,97,0,
00:00:09.832,82,82.3230361938477,97,0,
00:00:09.836,82,81.8298645019531,97,0,
00:00:09.84,82,81.8298645019531,97,0,
00:00:09.844,82,81.8298645019531,97,0,
00:00:09.848,82,81.4538803100586,97,0,
00:00:09.852,82,81.4538803100586,97,0,
00:00:09.856,82,81.4538803100586,97,0,
00:00:09.86,82,81.4538803100586,97,0,
00:00:09.864,82,81.1902008056641,97,0,
00:00:09.868,82,81.1902008056641,97,0,
00:00:09.872,82,81.1902008056641,97,0,
00:00:09.876,82,81.0119781494141,97,0,
00:00:09.88,82,81.0119781494141,97,0,
00:00:09.884,82,81.0119781494141,97,0,
00:00:09.888,82,80.8874664306641,97,0,
00:00:09.892,82,80.8874664306641,97,0,
00:00:09.896,82,80.8874664306641,97,0,
00:00:09.9,82,80.8874664306641,97,0,
00:00:09.904,82,80.7873687744141,97,0,
00:00:09.908,82,80.7873687744141,97,0,
00:00:09.912,82,80.7873687744141,97,0,
00:00:09.916,82,80.6823806762695,97,0,
00:00:09.92,82,80.6823806762695,97,0,
00:00:09.924,82,80.6823806762695,97,0,
00:00:09.928,82,80.5407791137695,97,0,
00:00:09.932,82,80.5407791137695,97,0,
00:00:09.936,82,80.5407791137695,97,0,
00:00:09.94,82,80.5407791137695,97,0,
00:00:09.944,82,80.3552322387695,97,0,
00:00:09.948,82,80.3552322387695,97,0,
00:00:09.952,82,80.3552322387695,97,0,
00:00:09.956,82,80.115966796875,97,0,
00:00:09.96,82,80.115966796875,97,0,
00:00:09.964,82,80.115966796875,97,0,
00:00:09.968,82,79.825439453125,97,0,
00:00:09.972,82,79.825439453125,97,0,
00:00:09.976,82,79.825439453125,97,0,
00:00:09.98,82,79.825439453125,97,0,
00:00:09.984,80,79.4909591674805,97,0,
00:00:09.988,80,79.4909591674805,97,0,
00:00:09.992,80,79.4909591674805,97,0,
00:00:09.996,80,79.1345062255859,97,0,
00:00:10,80,79.1345062255859,97,0,
00:00:10.004,80,79.1345062255859,97,0,
00:00:10.008,80,78.7756195068359,97,0,
00:00:10.012,80,78.7756195068359,97,0,
00:00:10.016,80,78.7756195068359,97,0,
00:00:10.02,80,78.7756195068359,97,0,
00:00:10.024,80,78.4191665649414,97,0,
00:00:10.028,80,78.4191665649414,97,0,
00:00:10.032,80,78.4191665649414,97,0,
00:00:10.036,80,78.0724792480469,97,0,
00:00:10.04,80,78.0724792480469,97,0,
00:00:10.044,80,78.0724792480469,97,0,
00:00:10.048,80,77.7404403686523,97,0,
00:00:10.052,80,77.7404403686523,97,0,
00:00:10.056,80,77.7404403686523,97,0,
00:00:10.06,80,77.7404403686523,97,0,
00:00:10.064,80,77.4230575561523,97,0,
00:00:10.068,80,77.4230575561523,97,0,
00:00:10.072,80,77.4230575561523,97,0,
00:00:10.076,80,77.1203155517578,97,0,
00:00:10.08,80,77.1203155517578,97,0,
00:00:10.084,80,77.1203155517578,97,0,
00:00:10.088,80,76.8346710205078,97,0,
00:00:10.092,80,76.8346710205078,97,0,
00:00:10.096,80,76.8346710205078,97,0,
00:00:10.1,80,76.8346710205078,97,0,
00:00:10.104,80,76.5612258911133,97,0,
00:00:10.108,80,76.5612258911133,97,0,
00:00:10.112,80,76.5612258911133,97,0,
00:00:10.116,80,76.3122024536133,97,0,
00:00:10.12,80,76.3122024536133,97,0,
00:00:10.124,80,76.3122024536133,97,0,
00:00:10.128,80,76.0875854492188,97,0,
00:00:10.132,80,76.0875854492188,97,0,
00:00:10.136,80,76.0875854492188,97,0,
00:00:10.14,80,76.0875854492188,97,0,
00:00:10.144,80,75.8849487304688,97,0,
00:00:10.148,80,75.8849487304688,97,0,
00:00:10.152,80,75.8849487304688,97,0,
00:00:10.156,80,75.7067184448242,97,0,
00:00:10.16,80,75.7067184448242,97,0,
00:00:10.164,80,75.7067184448242,97,0,
00:00:10.168,80,75.5529098510742,97,0,
00:00:10.172,80,75.5529098510742,97,0,
00:00:10.176,80,75.5529098510742,97,0,
00:00:10.18,80,75.5529098510742,97,0,
00:00:10.184,80,75.4210739135742,97,0,
00:00:10.188,80,75.4210739135742,97,0,
00:00:10.192,80,75.4210739135742,97,0,
00:00:10.196,80,75.3112106323242,97,0,
00:00:10.2,80,75.3112106323242,97,0,
00:00:10.204,80,75.3112106323242,97,0,
00:00:10.208,80,75.2184295654297,97,0,
00:00:10.212,80,75.2184295654297,97,0,
00:00:10.216,80,75.2184295654297,97,0,
00:00:10.22,80,75.2184295654297,97,0,
00:00:10.224,80,75.1403045654297,97,0,
00:00:10.228,80,75.1403045654297,97,0,
00:00:10.232,80,75.1403045654297,97,0,
00:00:10.236,80,75.0719451904297,97,0,
00:00:10.24,80,75.0719451904297,97,0,
00:00:10.244,80,75.0719451904297,97,0,
00:00:10.248,80,75.0157928466797,97,0,
00:00:10.252,80,75.0157928466797,97,0,
00:00:10.256,80,75.0157928466797,97,0,
00:00:10.26,80,75.0157928466797,97,0,
00:00:10.264,80,74.9742889404297,97,0,
00:00:10.268,80,74.9742889404297,97,0,
00:00:10.272,80,74.9742889404297,97,0,
00:00:10.276,80,74.9449920654297,97,0,
00:00:10.28,80,74.9449920654297,97,0,
00:00:10.284,80,74.9449920654297,97,0,
00:00:10.288,80,74.9303436279297,97,0,
00:00:10.292,80,74.9303436279297,97,0,
00:00:10.296,80,74.9303436279297,97,0,
00:00:10.3,80,74.9303436279297,97,0,
00:00:10.304,80,74.9279022216797,97,0,
00:00:10.308,80,74.9279022216797,97,0,
00:00:10.312,80,74.9279022216797,97,0,
00:00:10.316,80,74.9327850341797,97,0,
00:00:10.32,80,74.9327850341797,97,0,
00:00:10.324,80,74.9327850341797,97,0,
00:00:10.328,80,74.9401092529297,97,0,
00:00:10.332,80,74.9401092529297,97,0,
00:00:10.336,80,74.9401092529297,97,0,
00:00:10.34,80,74.9401092529297,97,0,
00:00:10.344,80,74.9474334716797,97,0,
00:00:10.348,80,74.9474334716797,97,0,
00:00:10.352,80,74.9474334716797,97,0,
00:00:10.356,80,74.9547576904297,97,0,
00:00:10.36,80,74.9547576904297,97,0,
00:00:10.364,80,74.9547576904297,97,0,
00:00:10.368,80,74.9523162841797,97,0,
00:00:10.372,80,74.9523162841797,97,0,
00:00:10.376,80,74.9523162841797,97,0,
00:00:10.38,80,74.9523162841797,97,0,
00:00:10.384,80,74.9352264404297,97,0,
00:00:10.388,80,74.9352264404297,97,0,
00:00:10.392,80,74.9352264404297,97,0,
00:00:10.396,80,74.9132537841797,97,0,
00:00:10.4,80,74.9132537841797,97,0,
00:00:10.404,80,74.9132537841797,97,0,
00:00:10.408,80,74.9205780029297,97,0,
00:00:10.412,80,74.9205780029297,97,0,
00:00:10.416,80,74.9205780029297,97,0,
00:00:10.42,80,74.9205780029297,97,0,
00:00:10.424,80,75.0450897216797,97,0,
00:00:10.428,80,75.0450897216797,97,0,
00:00:10.432,80,75.0450897216797,97,0,
00:00:10.436,80,75.4235153198242,97,0,
00:00:10.44,80,75.4235153198242,97,0,
00:00:10.444,80,75.4235153198242,97,0,
00:00:10.448,80,76.1803588867188,97,0,
00:00:10.452,80,76.1803588867188,97,0,
00:00:10.456,80,76.1803588867188,97,0,
00:00:10.46,80,76.1803588867188,97,0,
00:00:10.464,80,77.3962020874023,97,0,
00:00:10.468,80,77.3962020874023,97,0,
00:00:10.472,80,77.3962020874023,97,0,
00:00:10.476,80,79.0466156005859,97,0,
00:00:10.48,80,79.0466156005859,97,0,
00:00:10.484,80,79.0466156005859,97,0,
00:00:10.488,80,81.0070953369141,97,0,
00:00:10.492,80,81.0070953369141,97,0,
00:00:10.496,80,81.0070953369141,97,0,
00:00:10.5,80,81.0070953369141,97,0,
00:00:10.504,80,83.0579071044922,97,0,
00:00:10.508,80,83.0579071044922,97,0,
00:00:10.512,80,83.0579071044922,97,0,
00:00:10.516,80,84.9720001220703,97,0,
00:00:10.52,80,84.9720001220703,97,0,
00:00:10.524,80,84.9720001220703,97,0,
00:00:10.528,80,86.5540542602539,97,0,
00:00:10.532,80,86.5540542602539,97,0,
00:00:10.536,80,86.5540542602539,97,0,
00:00:10.54,80,86.5540542602539,97,0,
00:00:10.544,80,87.699089050293,97,0,
00:00:10.548,80,87.699089050293,97,0,
00:00:10.552,80,87.699089050293,97,0,
00:00:10.556,80,88.377815246582,97,0,
00:00:10.56,80,88.377815246582,97,0,
00:00:10.564,80,88.377815246582,97,0,
00:00:10.568,80,88.629280090332,97,0,
00:00:10.572,80,88.629280090332,97,0,
00:00:10.576,80,88.629280090332,97,0,
00:00:10.58,80,88.629280090332,97,0,
00:00:10.584,80,88.516975402832,97,0,
00:00:10.588,80,88.516975402832,97,0,
00:00:10.592,80,88.516975402832,97,0,
00:00:10.596,80,88.1312255859375,97,0,
00:00:10.6,80,88.1312255859375,97,0,
00:00:10.604,80,88.1312255859375,97,0,
00:00:10.608,80,87.559928894043,97,0,
00:00:10.612,80,87.559928894043,97,0,
00:00:10.616,80,87.559928894043,97,0,
00:00:10.62,80,87.559928894043,97,0,
00:00:10.624,80,86.8738861083984,97,0,
00:00:10.628,80,86.8738861083984,97,0,
00:00:10.632,80,86.8738861083984,97,0,
00:00:10.636,80,86.1219177246094,97,0,
00:00:10.64,80,86.1219177246094,97,0,
00:00:10.644,80,86.1219177246094,97,0,
00:00:10.648,78,85.3431015014648,97,0,
00:00:10.652,78,85.3431015014648,97,0,
00:00:10.656,78,85.3431015014648,97,0,
00:00:10.66,78,85.3431015014648,97,0,
00:00:10.664,78,84.5593948364258,97,0,
00:00:10.668,78,84.5593948364258,97,0,
00:00:10.672,78,84.5593948364258,97,0,
00:00:10.676,78,83.8001098632813,97,0,
00:00:10.68,78,83.8001098632813,97,0,
00:00:10.684,78,83.8001098632813,97,0,
00:00:10.688,78,83.0920867919922,97,0,
00:00:10.692,78,83.0920867919922,97,0,
00:00:10.696,78,83.0920867919922,97,0,
00:00:10.7,78,83.0920867919922,97,0,
00:00:10.704,78,82.4719619750977,97,0,
00:00:10.708,78,82.4719619750977,97,0,
00:00:10.712,78,82.4719619750977,97,0,
00:00:10.716,78,81.9568176269531,97,0,
00:00:10.72,78,81.9568176269531,97,0,
00:00:10.724,78,81.9568176269531,97,0,
00:00:10.728,78,81.5637435913086,97,0,
00:00:10.732,78,81.5637435913086,97,0,
00:00:10.736,78,81.5637435913086,97,0,
00:00:10.74,78,81.5637435913086,97,0,
00:00:10.744,78,81.2927474975586,97,0,
00:00:10.748,78,81.2927474975586,97,0,
00:00:10.752,78,81.2927474975586,97,0,
00:00:10.756,78,81.1242828369141,97,0,
00:00:10.76,78,81.1242828369141,97,0,
00:00:10.764,78,81.1242828369141,97,0,
00:00:10.768,78,81.0315093994141,97,0,
00:00:10.772,78,81.0315093994141,97,0,
00:00:10.776,78,81.0315093994141,97,0,
00:00:10.78,78,81.0315093994141,97,0,
00:00:10.784,78,80.9753570556641,97,0,
00:00:10.788,78,80.9753570556641,97,0,
00:00:10.792,78,80.9753570556641,97,0,
00:00:10.796,78,80.9216461181641,97,0,
00:00:10.8,78,80.9216461181641,97,0,
00:00:10.804,78,80.9216461181641,97,0,
00:00:10.808,78,80.8410797119141,97,0,
00:00:10.812,78,80.8410797119141,97,0,
00:00:10.816,78,80.8410797119141,97,0,
00:00:10.82,78,80.8410797119141,97,0,
00:00:10.824,78,80.7141189575195,97,0,
00:00:10.828,78,80.7141189575195,97,0,
00:00:10.832,78,80.7141189575195,97,0,
00:00:10.836,78,80.5285720825195,97,0,
00:00:10.84,78,80.5285720825195,97,0,
00:00:10.844,78,80.5285720825195,97,0,
00:00:10.848,78,80.2868728637695,97,0,
00:00:10.852,78,80.2868728637695,97,0,
00:00:10.856,78,80.2868728637695,97,0,
00:00:10.86,78,80.2868728637695,97,0,
00:00:10.864,78,79.996337890625,97,0,
00:00:10.868,78,79.996337890625,97,0,
00:00:10.872,78,79.996337890625,97,0,
00:00:10.876,78,79.6740646362305,97,0,
00:00:10.88,78,79.6740646362305,97,0,
00:00:10.884,78,79.6740646362305,97,0,
00:00:10.888,78,79.3298263549805,97,0,
00:00:10.892,78,79.3298263549805,97,0,
00:00:10.896,78,79.3298263549805,97,0,
00:00:10.9,78,79.3298263549805,97,0,
00:00:10.904,78,78.9782562255859,97,0,
00:00:10.908,78,78.9782562255859,97,0,
00:00:10.912,78,78.9782562255859,97,0,
00:00:10.916,78,78.6266860961914,97,0,
00:00:10.92,78,78.6266860961914,97,0,
00:00:10.924,78,78.6266860961914,97,0,
00:00:10.928,78,78.2873306274414,97,0,
00:00:10.932,78,78.2873306274414,97,0,
00:00:10.936,78,78.2873306274414,97,0,
00:00:10.94,78,78.2873306274414,97,0,
00:00:10.944,78,77.9601745605469,97,0,
00:00:10.948,78,77.9601745605469,97,0,
00:00:10.952,78,77.9601745605469,97,0,
00:00:10.956,78,77.6501083374023,97,0,
00:00:10.96,78,77.6501083374023,97,0,
00:00:10.964,78,77.6501083374023,97,0,
00:00:10.968,78,77.3546981811523,97,0,
00:00:10.972,78,77.3546981811523,97,0,
00:00:10.976,78,77.3546981811523,97,0,
00:00:10.98,78,77.3546981811523,97,0,
00:00:10.984,78,77.0836944580078,97,0,
00:00:10.988,78,77.0836944580078,97,0,
00:00:10.992,78,77.0836944580078,97,0,
00:00:10.996,78,76.8395538330078,97,0,
00:00:11,78,76.8395538330078,97,0,
00:00:11.004,78,76.8395538330078,97,0,
00:00:11.008,78,76.6247024536133,97,0,
00:00:11.012,78,76.6247024536133,97,0,
00:00:11.016,78,76.6247024536133,97,0,
00:00:11.02,78,76.6247024536133,97,0,
00:00:11.024,78,76.4391555786133,97,0,
00:00:11.028,78,76.4391555786133,97,0,
00:00:11.032,78,76.4391555786133,97,0,
00:00:11.036,78,76.2804641723633,97,0,
00:00:11.04,78,76.2804641723633,97,0,
00:00:11.044,78,76.2804641723633,97,0,
00:00:11.048,78,76.1486206054688,97,0,
00:00:11.052,78,76.1486206054688,97,0,
00:00:11.056,78,76.1486206054688,97,0,
00:00:11.06,78,76.1486206054688,97,0,
00:00:11.064,78,76.0314331054688,97,0,
00:00:11.068,78,76.0314331054688,97,0,
00:00:11.072,78,76.0314331054688,97,0,
00:00:11.076,78,75.9240112304688,97,0,
00:00:11.08,78,75.9240112304688,97,0,
00:00:11.084,78,75.9240112304688,97,0,
00:00:11.088,78,75.8287963867188,97,0,
00:00:11.092,78,75.8287963867188,97,0,
00:00:11.096,78,75.8287963867188,97,0,
00:00:11.1,78,75.8287963867188,97,0,
00:00:11.104,78,75.7457809448242,97,0,
00:00:11.108,78,75.7457809448242,97,0,
00:00:11.112,78,75.7457809448242,97,0,
00:00:11.116,78,75.6798629760742,97,0,
00:00:11.12,78,75.6798629760742,97,0,
00:00:11.124,78,75.6798629760742,97,0,
00:00:11.128,78,75.6285934448242,97,0,
00:00:11.132,78,75.6285934448242,97,0,
00:00:11.136,78,75.6285934448242,97,0,
00:00:11.14,78,75.6285934448242,97,0,
00:00:11.144,78,75.5992965698242,97,0,
00:00:11.148,78,75.5992965698242,97,0,
00:00:11.152,78,75.5992965698242,97,0,
00:00:11.156,78,75.5797653198242,97,0,
00:00:11.16,78,75.5797653198242,97,0,
00:00:11.164,78,75.5797653198242,97,0,
00:00:11.168,78,75.5724411010742,97,0,
00:00:11.172,78,75.5724411010742,97,0,
00:00:11.176,78,75.5724411010742,97,0,
00:00:11.18,78,75.5724411010742,97,0,
00:00:11.184,78,75.5699996948242,97,0,
00:00:11.188,78,75.5699996948242,97,0,
00:00:11.192,78,75.5699996948242,97,0,
00:00:11.196,78,75.5651168823242,97,0,
00:00:11.2,78,75.5651168823242,97,0,
00:00:11.204,78,75.5651168823242,97,0,
00:00:11.208,78,75.5577926635742,97,0,
00:00:11.212,78,75.5577926635742,97,0,
00:00:11.216,78,75.5577926635742,97,0,
00:00:11.22,78,75.5577926635742,97,0,
00:00:11.224,78,75.5455856323242,97,0,
00:00:11.228,78,75.5455856323242,97,0,
00:00:11.232,78,75.5455856323242,97,0,
00:00:11.236,78,75.5260543823242,97,0,
00:00:11.24,78,75.5260543823242,97,0,
00:00:11.244,78,75.5260543823242,97,0,
00:00:11.248,78,75.4967575073242,97,0,
00:00:11.252,78,75.4967575073242,97,0,
00:00:11.256,78,75.4967575073242,97,0,
00:00:11.26,78,75.4967575073242,97,0,
00:00:11.264,78,75.4723434448242,97,0,
00:00:11.268,78,75.4723434448242,97,0,
00:00:11.272,78,75.4723434448242,97,0,
00:00:11.276,78,75.4991989135742,97,0,
00:00:11.28,78,75.4991989135742,97,0,
00:00:11.284,78,75.4991989135742,97,0,
00:00:11.288,78,75.6823043823242,97,0,
00:00:11.292,78,75.6823043823242,97,0,
00:00:11.296,78,75.6823043823242,97,0,
00:00:11.3,78,75.6823043823242,97,0,
00:00:11.304,78,76.1535034179688,97,0,
00:00:11.308,78,76.1535034179688,97,0,
00:00:11.312,78,76.1535034179688,97,0,
00:00:11.316,78,77.0177764892578,97,0,
00:00:11.32,78,77.0177764892578,97,0,
00:00:11.324,78,77.0177764892578,97,0,
00:00:11.328,78,78.3166275024414,97,0,
00:00:11.332,78,78.3166275024414,97,0,
00:00:11.336,78,78.3166275024414,97,0,
00:00:11.34,78,78.3166275024414,97,0,
00:00:11.344,78,79.986572265625,97,0,
00:00:11.348,78,79.986572265625,97,0,
00:00:11.352,78,79.986572265625,97,0,
00:00:11.356,78,81.8567199707031,97,0,
00:00:11.36,78,81.8567199707031,97,0,
00:00:11.364,78,81.8567199707031,97,0,
00:00:11.368,78,83.7073287963867,97,0,
00:00:11.372,78,83.7073287963867,97,0,
00:00:11.376,78,83.7073287963867,97,0,
00:00:11.38,78,83.7073287963867,97,0,
00:00:11.384,78,85.3308944702148,97,0,
00:00:11.388,78,85.3308944702148,97,0,
00:00:11.392,78,85.3308944702148,97,0,
00:00:11.396,78,86.5735855102539,97,0,
00:00:11.4,78,86.5735855102539,97,0,
00:00:11.404,78,86.5735855102539,97,0,
00:00:11.408,78,87.379264831543,97,0,
00:00:11.412,78,87.379264831543,97,0,
00:00:11.416,78,87.379264831543,97,0,
00:00:11.42,78,87.379264831543,97,0,
00:00:11.424,78,87.7528076171875,97,0,
00:00:11.428,78,87.7528076171875,97,0,
00:00:11.432,78,87.7528076171875,97,0,
00:00:11.436,78,87.7503662109375,97,0,
00:00:11.44,78,87.7503662109375,97,0,
00:00:11.444,78,87.7503662109375,97,0,
00:00:11.448,78,87.445182800293,97,0,
00:00:11.452,78,87.445182800293,97,0,
00:00:11.456,78,87.445182800293,97,0,
00:00:11.46,78,87.445182800293,97,0,
00:00:11.464,78,86.9300384521484,97,0,
00:00:11.468,78,86.9300384521484,97,0,
00:00:11.472,78,86.9300384521484,97,0,
00:00:11.476,78,86.2757339477539,97,0,
00:00:11.48,78,86.2757339477539,97,0,
00:00:11.484,78,86.2757339477539,97,0,
00:00:11.488,78,85.5457382202148,97,0,
00:00:11.492,78,85.5457382202148,97,0,
00:00:11.496,78,85.5457382202148,97,0,
00:00:11.5,78,85.5457382202148,97,0,
00:00:11.504,78,84.7742462158203,97,0,
00:00:11.508,78,84.7742462158203,97,0,
00:00:11.512,78,84.7742462158203,97,0,
00:00:11.516,78,83.9905395507813,97,0,
00:00:11.52,78,83.9905395507813,97,0,
00:00:11.524,78,83.9905395507813,97,0,
00:00:11.528,78,83.2214813232422,97,0,
00:00:11.532,78,83.2214813232422,97,0,
00:00:11.536,78,83.2214813232422,97,0,
00:00:11.54,78,83.2214813232422,97,0,
00:00:11.544,78,82.4963760375977,97,0,
00:00:11.548,78,82.4963760375977,97,0,
00:00:11.552,78,82.4963760375977,97,0,
00:00:11.556,78,81.8493957519531,97,0,
00:00:11.56,78,81.8493957519531,97,0,
00:00:11.564,78,81.8493957519531,97,0,
00:00:11.568,78,81.3073959350586,97,0,
00:00:11.572,78,81.3073959350586,97,0,
00:00:11.576,78,81.3073959350586,97,0,
00:00:11.58,78,81.3073959350586,97,0,
00:00:11.584,78,80.8947906494141,97,0,
00:00:11.588,78,80.8947906494141,97,0,
00:00:11.592,78,80.8947906494141,97,0,
00:00:11.596,78,80.6213455200195,97,0,
00:00:11.6,78,80.6213455200195,97,0,
00:00:11.604,78,80.6213455200195,97,0,
00:00:11.608,78,80.4748611450195,97,0,
00:00:11.612,78,80.4748611450195,97,0,
00:00:11.616,78,80.4748611450195,97,0,
00:00:11.62,78,80.4748611450195,97,0,
00:00:11.624,78,80.4260330200195,97,0,
00:00:11.628,78,80.4260330200195,97,0,
00:00:11.632,78,80.4260330200195,97,0,
00:00:11.636,78,80.4357986450195,97,0,
00:00:11.64,78,80.4357986450195,97,0,
00:00:11.644,78,80.4357986450195,97,0,
00:00:11.648,76,80.4699783325195,98,0,
00:00:11.652,76,80.4699783325195,98,0,
00:00:11.656,76,80.4699783325195,98,0,
00:00:11.66,76,80.4699783325195,98,0,
00:00:11.664,76,80.4846267700195,98,0,
00:00:11.668,76,80.4846267700195,98,0,
00:00:11.672,76,80.4846267700195,98,0,
00:00:11.676,76,80.4528884887695,98,0,
00:00:11.68,76,80.4528884887695,98,0,
00:00:11.684,76,80.4528884887695,98,0,
00:00:11.688,76,80.3503494262695,98,0,
00:00:11.692,76,80.3503494262695,98,0,
00:00:11.696,76,80.3503494262695,98,0,
00:00:11.7,76,80.3503494262695,98,0,
00:00:11.704,76,80.177001953125,98,0,
00:00:11.708,76,80.177001953125,98,0,
00:00:11.712,76,80.177001953125,98,0,
00:00:11.716,76,79.937744140625,98,0,
00:00:11.72,76,79.937744140625,98,0,
00:00:11.724,76,79.937744140625,98,0,
00:00:11.728,76,79.6472091674805,98,0,
00:00:11.732,76,79.6472091674805,98,0,
00:00:11.736,76,79.6472091674805,98,0,
00:00:11.74,76,79.6472091674805,98,0,
00:00:11.744,76,79.3176193237305,98,0,
00:00:11.748,76,79.3176193237305,98,0,
00:00:11.752,76,79.3176193237305,98,0,
00:00:11.756,76,78.9733734130859,98,0,
00:00:11.76,76,78.9733734130859,98,0,
00:00:11.764,76,78.9733734130859,98,0,
00:00:11.768,76,78.6242446899414,98,0,
00:00:11.772,76,78.6242446899414,98,0,
00:00:11.776,76,78.6242446899414,98,0,
00:00:11.78,76,78.6242446899414,98,0,
00:00:11.784,76,78.2873306274414,98,0,
00:00:11.788,76,78.2873306274414,98,0,
00:00:11.792,76,78.2873306274414,98,0,
00:00:11.796,76,77.9699401855469,98,0,
00:00:11.8,76,77.9699401855469,98,0,
00:00:11.804,76,77.9699401855469,98,0,
00:00:11.808,76,77.6818466186523,98,0,
00:00:11.812,76,77.6818466186523,98,0,
00:00:11.816,76,77.6818466186523,98,0,
00:00:11.82,76,77.6818466186523,98,0,
00:00:11.824,76,77.4230575561523,98,0,
00:00:11.828,76,77.4230575561523,98,0,
00:00:11.832,76,77.4230575561523,98,0,
00:00:11.836,76,77.1959991455078,98,0,
00:00:11.84,76,77.1959991455078,98,0,
00:00:11.844,76,77.1959991455078,98,0,
00:00:11.848,76,76.9958038330078,98,0,
00:00:11.852,76,76.9958038330078,98,0,
00:00:11.856,76,76.9958038330078,98,0,
00:00:11.86,76,76.9958038330078,98,0,
00:00:11.864,76,76.8151397705078,98,0,
00:00:11.868,76,76.8151397705078,98,0,
00:00:11.872,76,76.8151397705078,98,0,
00:00:11.876,76,76.6491165161133,98,0,
00:00:11.88,76,76.6491165161133,98,0,
00:00:11.884,76,76.6491165161133,98,0,
00:00:11.888,76,76.5075149536133,98,0,
00:00:11.892,76,76.5075149536133,98,0,
00:00:11.896,76,76.5075149536133,98,0,
00:00:11.9,76,76.5075149536133,98,0,
00:00:11.904,76,76.3830032348633,98,0,
00:00:11.908,76,76.3830032348633,98,0,
00:00:11.912,76,76.3830032348633,98,0,
00:00:11.916,76,76.2731399536133,98,0,
00:00:11.92,76,76.2731399536133,98,0,
00:00:11.924,76,76.2731399536133,98,0,
00:00:11.928,76,76.1803588867188,98,0,
00:00:11.932,76,76.1803588867188,98,0,
00:00:11.936,76,76.1803588867188,98,0,
00:00:11.94,76,76.1803588867188,98,0,
00:00:11.944,76,76.0997924804688,98,0,
00:00:11.948,76,76.0997924804688,98,0,
00:00:11.952,76,76.0997924804688,98,0,
00:00:11.956,76,76.0289916992188,98,0,
00:00:11.96,76,76.0289916992188,98,0,
00:00:11.964,76,76.0289916992188,98,0,
00:00:11.968,76,75.9679565429688,98,0,
00:00:11.972,76,75.9679565429688,98,0,
00:00:11.976,76,75.9679565429688,98,0,
00:00:11.98,76,75.9679565429688,98,0,
00:00:11.984,76,75.9191284179688,98,0,
00:00:11.988,76,75.9191284179688,98,0,
00:00:11.992,76,75.9191284179688,98,0,
00:00:11.996,76,75.8825073242188,98,0,
00:00:12,76,75.8825073242188,98,0,
00:00:12.004,76,75.8825073242188,98,0,
00:00:12.008,76,75.8532104492188,98,0,
00:00:12.012,76,75.8532104492188,98,0,
00:00:12.016,76,75.8532104492188,98,0,
00:00:12.02,76,75.8532104492188,98,0,
00:00:12.024,76,75.8190307617188,98,0,
00:00:12.028,76,75.8190307617188,98,0,
00:00:12.032,76,75.8190307617188,98,0,
00:00:12.036,76,75.7824096679688,98,0,
00:00:12.04,76,75.7824096679688,98,0,
00:00:12.044,76,75.7824096679688,98,0,
00:00:12.048,76,75.7360153198242,98,0,
00:00:12.052,76,75.7360153198242,98,0,
00:00:12.056,76,75.7360153198242,98,0,
00:00:12.06,76,75.7360153198242,98,0,
00:00:12.064,76,75.6896286010742,98,0,
00:00:12.068,76,75.6896286010742,98,0,
00:00:12.072,76,75.6896286010742,98,0,
00:00:12.076,76,75.6774215698242,98,0,
00:00:12.08,76,75.6774215698242,98,0,
00:00:12.084,76,75.6774215698242,98,0,
00:00:12.088,76,75.7872924804688,98,0,
