Elapsed Time,Heart Rate PulseOx1,PPG PulseOx1,SpO2 PulseOx1,BioRadio Event,
00:00:00,511,87.1717376708984,127,0,
00:00:00.004,511,87.1717376708984,127,0,
00:00:00.008,511,86.2903823852539,127,0,
00:00:00.012,511,86.2903823852539,127,0,
00:00:00.016,511,86.2903823852539,127,0,
00:00:00.02,511,86.2903823852539,127,0,
00:00:00.024,511,85.3382186889648,127,0,
00:00:00.028,511,85.3382186889648,127,0,
00:00:00.032,511,85.3382186889648,127,0,
00:00:00.036,511,84.3567581176758,127,0,
00:00:00.04,511,84.3567581176758,127,0,
00:00:00.044,511,84.3567581176758,127,0,
00:00:00.048,76,83.3801803588867,98,0,
00:00:00.052,76,83.3801803588867,98,0,
00:00:00.056,76,83.3801803588867,98,0,
00:00:00.06,76,83.3801803588867,98,0,
00:00:00.064,76,82.4646377563477,98,0,
00:00:00.068,76,82.4646377563477,98,0,
00:00:00.072,76,82.4646377563477,98,0,
00:00:00.076,76,81.6540756225586,98,0,
00:00:00.08,76,81.6540756225586,98,0,
00:00:00.084,76,81.6540756225586,98,0,
00:00:00.088,76,80.9851226806641,98,0,
00:00:00.092,76,80.9851226806641,98,0,
00:00:00.096,76,80.9851226806641,98,0,
00:00:00.1,76,80.9851226806641,98,0,
00:00:00.104,76,80.4650955200195,98,0,
00:00:00.108,76,80.4650955200195,98,0,
00:00:00.112,76,80.4650955200195,98,0,
00:00:00.116,76,80.089111328125,98,0,
00:00:00.12,76,80.089111328125,98,0,
00:00:00.124,76,80.089111328125,98,0,
00:00:00.128,76,79.835205078125,98,0,
00:00:00.132,76,79.835205078125,98,0,
00:00:00.136,76,79.835205078125,98,0,
00:00:00.14,76,79.835205078125,98,0,
00:00:00.144,76,79.6716232299805,98,0,
00:00:00.148,76,79.6716232299805,98,0,
00:00:00.152,76,79.6716232299805,98,0,
00:00:00.156,76,79.5519943237305,98,0,
00:00:00.16,76,79.5519943237305,98,0,
00:00:00.164,76,79.5519943237305,98,0,
00:00:00.168,76,79.4372482299805,98,0,
00:00:00.172,76,79.4372482299805,98,0,
00:00:00.176,76,79.4372482299805,98,0,
00:00:00.18,76,79.4372482299805,98,0,
00:00:00.184,76,79.2907638549805,98,0,
00:00:00.188,76,79.2907638549805,98,0,
00:00:00.192,76,79.2907638549805,98,0,
00:00:00.196,76,79.0978851318359,98,0,
00:00:00.2,76,79.0978851318359,98,0,
00:00:00.204,76,79.0978851318359,98,0,
00:00:00.208,76,78.8488616943359,98,0,
00:00:00.212,76,78.8488616943359,98,0,
00:00:00.216,76,78.8488616943359,98,0,
00:00:00.22,76,78.8488616943359,98,0,
00:00:00.224,76,78.5461196899414,98,0,
00:00:00.228,76,78.5461196899414,98,0,
00:00:00.232,76,78.5461196899414,98,0,
00:00:00.236,76,78.1969909667969,98,0,
00:00:00.24,76,78.1969909667969,98,0,
00:00:00.244,76,78.1969909667969,98,0,
00:00:00.248,76,77.8112487792969,98,0,
00:00:00.252,76,77.8112487792969,98,0,
00:00:00.256,76,77.8112487792969,98,0,
00:00:00.26,76,77.8112487792969,98,0,
00:00:00.264,76,77.4010848999023,98,0,
00:00:00.268,76,77.4010848999023,98,0,
00:00:00.272,76,77.4010848999023,98,0,
00:00:00.276,76,76.9738311767578,98,0,
00:00:00.28,76,76.9738311767578,98,0,
00:00:00.284,76,76.9738311767578,98,0,
00:00:00.288,76,76.5416946411133,98,0,
00:00:00.292,76,76.5416946411133,98,0,
00:00:00.296,76,76.5416946411133,98,0,
00:00:00.3,76,76.5416946411133,98,0,
00:00:00.304,76,76.1119995117188,98,0,
00:00:00.308,76,76.1119995117188,98,0,
00:00:00.312,76,76.1119995117188,98,0,
00:00:00.316,76,75.6969528198242,98,0,
00:00:00.32,76,75.6969528198242,98,0,
00:00:00.324,76,75.6969528198242,98,0,
00:00:00.328,76,75.3014450073242,98,0,
00:00:00.332,76,75.3014450073242,98,0,
00:00:00.336,76,75.3014450073242,98,0,
00:00:00.34,76,75.3014450073242,98,0,
00:00:00.344,76,74.9376678466797,98,0,
00:00:00.348,76,74.9376678466797,98,0,
00:00:00.352,76,74.9376678466797,98,0,
00:00:00.356,76,74.6178359985352,98,0,
00:00:00.36,76,74.6178359985352,98,0,
00:00:00.364,76,74.6178359985352,98,0,
00:00:00.368,76,74.3443984985352,98,0,
00:00:00.372,76,74.3443984985352,98,0,
00:00:00.376,76,74.3443984985352,98,0,
00:00:00.38,76,74.3443984985352,98,0,
00:00:00.384,76,74.1173400878906,98,0,
00:00:00.388,76,74.1173400878906,98,0,
00:00:00.392,76,74.1173400878906,98,0,
00:00:00.396,76,73.9366760253906,98,0,
00:00:00.4,76,73.9366760253906,98,0,
00:00:00.404,76,73.9366760253906,98,0,
00:00:00.408,76,73.7975158691406,98,0,
00:00:00.412,76,73.7975158691406,98,0,
00:00:00.416,76,73.7975158691406,98,0,
00:00:00.42,76,73.7975158691406,98,0,
00:00:00.424,76,73.6852035522461,98,0,
00:00:00.428,76,73.6852035522461,98,0,
00:00:00.432,76,73.6852035522461,98,0,
00:00:00.436,76,73.5973129272461,98,0,
00:00:00.44,76,73.5973129272461,98,0,
00:00:00.444,76,73.5973129272461,98,0,
00:00:00.448,76,73.5289535522461,98,0,
00:00:00.452,76,73.5289535522461,98,0,
00:00:00.456,76,73.5289535522461,98,0,
00:00:00.46,76,73.5289535522461,98,0,
00:00:00.464,76,73.4728012084961,98,0,
00:00:00.468,76,73.4728012084961,98,0,
00:00:00.472,76,73.4728012084961,98,0,
00:00:00.476,76,73.4190902709961,98,0,
00:00:00.48,76,73.4190902709961,98,0,
00:00:00.484,76,73.4190902709961,98,0,
00:00:00.488,76,73.3653793334961,98,0,
00:00:00.492,76,73.3653793334961,98,0,
00:00:00.496,76,73.3653793334961,98,0,
00:00:00.5,76,73.3653793334961,98,0,
00:00:00.504,76,73.3116683959961,98,0,
00:00:00.508,76,73.3116683959961,98,0,
00:00:00.512,76,73.3116683959961,98,0,
00:00:00.516,76,73.2579574584961,98,0,
00:00:00.52,76,73.2579574584961,98,0,
00:00:00.524,76,73.2579574584961,98,0,
00:00:00.528,76,73.2213287353516,98,0,
00:00:00.532,76,73.2213287353516,98,0,
00:00:00.536,76,73.2213287353516,98,0,
00:00:00.54,76,73.2213287353516,98,0,
00:00:00.544,76,73.2335357666016,98,0,
00:00:00.548,76,73.2335357666016,98,0,
00:00:00.552,76,73.2335357666016,98,0,
00:00:00.556,76,73.3897933959961,98,0,
00:00:00.56,76,73.3897933959961,98,0,
00:00:00.564,76,73.3897933959961,98,0,
00:00:00.568,76,73.8072814941406,98,0,
00:00:00.572,76,73.8072814941406,98,0,
00:00:00.576,76,73.8072814941406,98,0,
00:00:00.58,76,73.8072814941406,98,0,
00:00:00.584,76,74.5983047485352,98,0,
00:00:00.588,76,74.5983047485352,98,0,
00:00:00.592,76,74.5983047485352,98,0,
00:00:00.596,76,75.8361206054688,98,0,
00:00:00.6,76,75.8361206054688,98,0,
00:00:00.604,76,75.8361206054688,98,0,
00:00:00.608,76,77.5158309936523,98,0,
00:00:00.612,76,77.5158309936523,98,0,
00:00:00.616,76,77.5158309936523,98,0,
00:00:00.62,76,77.5158309936523,98,0,
00:00:00.624,76,79.5300216674805,98,0,
00:00:00.628,76,79.5300216674805,98,0,
00:00:00.632,76,79.5300216674805,98,0,
00:00:00.636,76,81.6955795288086,98,0,
00:00:00.64,76,81.6955795288086,98,0,
00:00:00.644,76,81.6955795288086,98,0,
00:00:00.648,76,83.8074340820313,98,0,
00:00:00.652,76,83.8074340820313,98,0,
00:00:00.656,76,83.8074340820313,98,0,
00:00:00.66,76,83.8074340820313,98,0,
00:00:00.664,76,85.6848983764648,98,0,
00:00:00.668,76,85.6848983764648,98,0,
00:00:00.672,76,85.6848983764648,98,0,
00:00:00.676,76,87.1863861083984,98,0,
00:00:00.68,76,87.1863861083984,98,0,
00:00:00.684,76,87.1863861083984,98,0,
00:00:00.688,76,88.2386474609375,98,0,
00:00:00.692,76,88.2386474609375,98,0,
00:00:00.696,76,88.2386474609375,98,0,
00:00:00.7,76,88.2386474609375,98,0,
00:00:00.704,76,88.8319244384766,98,0,
00:00:00.708,76,88.8319244384766,98,0,
00:00:00.712,76,88.8319244384766,98,0,
00:00:00.716,76,89.0028228759766,98,0,
00:00:00.72,76,89.0028228759766,98,0,
00:00:00.724,76,89.0028228759766,98,0,
00:00:00.728,76,88.8221588134766,98,0,
00:00:00.732,76,88.8221588134766,98,0,
00:00:00.736,76,88.8221588134766,98,0,
00:00:00.74,76,88.8221588134766,98,0,
00:00:00.744,76,88.375373840332,98,0,
00:00:00.748,76,88.375373840332,98,0,
00:00:00.752,76,88.375373840332,98,0,
00:00:00.756,76,87.743034362793,98,0,
00:00:00.76,76,87.743034362793,98,0,
00:00:00.764,76,87.743034362793,98,0,
00:00:00.768,76,86.9788665771484,98,0,
00:00:00.772,76,86.9788665771484,98,0,
00:00:00.776,76,86.9788665771484,98,0,
00:00:00.78,76,86.9788665771484,98,0,
00:00:00.784,76,86.1170349121094,98,0,
00:00:00.788,76,86.1170349121094,98,0,
00:00:00.792,76,86.1170349121094,98,0,
00:00:00.796,76,85.1795196533203,98,0,
00:00:00.8,76,85.1795196533203,98,0,
00:00:00.804,76,85.1795196533203,98,0,
00:00:00.808,76,84.1931762695313,98,0,
00:00:00.812,76,84.1931762695313,98,0,
00:00:00.816,76,84.1931762695313,98,0,
00:00:00.82,76,84.1931762695313,98,0,
00:00:00.824,76,83.1970672607422,98,0,
00:00:00.828,76,83.1970672607422,98,0,
00:00:00.832,76,83.1970672607422,98,0,
00:00:00.836,76,82.2400207519531,98,0,
00:00:00.84,76,82.2400207519531,98,0,
00:00:00.844,76,82.2400207519531,98,0,
00:00:00.848,76,81.3781967163086,98,0,
00:00:00.852,76,81.3781967163086,98,0,
00:00:00.856,76,81.3781967163086,98,0,
00:00:00.86,76,81.3781967163086,98,0,
00:00:00.864,76,80.6433181762695,98,0,
00:00:00.868,76,80.6433181762695,98,0,
00:00:00.872,76,80.6433181762695,98,0,
00:00:00.876,76,80.067138671875,98,0,
00:00:00.88,76,80.067138671875,98,0,
00:00:00.884,76,80.067138671875,98,0,
00:00:00.888,76,79.6472091674805,98,0,
00:00:00.892,76,79.6472091674805,98,0,
00:00:00.896,76,79.6472091674805,98,0,
00:00:00.9,76,79.6472091674805,98,0,
00:00:00.904,76,79.3640060424805,98,0,
00:00:00.908,76,79.3640060424805,98,0,
00:00:00.912,76,79.3640060424805,98,0,
00:00:00.916,76,79.1930999755859,98,0,
00:00:00.92,76,79.1930999755859,98,0,
00:00:00.924,76,79.1930999755859,98,0,
00:00:00.928,76,79.0954437255859,98,0,
00:00:00.932,76,79.0954437255859,98,0,
00:00:00.936,76,79.0954437255859,98,0,
00:00:00.94,76,79.0954437255859,98,0,
00:00:00.944,76,79.0344085693359,98,0,
00:00:00.948,76,79.0344085693359,98,0,
00:00:00.952,76,79.0344085693359,98,0,
00:00:00.956,76,78.9660491943359,98,0,
00:00:00.96,76,78.9660491943359,98,0,
00:00:00.964,76,78.9660491943359,98,0,
00:00:00.968,76,78.8659515380859,98,0,
00:00:00.972,76,78.8659515380859,98,0,
00:00:00.976,76,78.8659515380859,98,0,
00:00:00.98,76,78.8659515380859,98,0,
00:00:00.984,76,78.7145767211914,98,0,
00:00:00.988,76,78.7145767211914,98,0,
00:00:00.992,76,78.7145767211914,98,0,
00:00:00.996,76,78.5021743774414,98,0,
00:00:01,76,78.5021743774414,98,0,
00:00:01.004,76,78.5021743774414,98,0,
00:00:01.008,76,78.2311706542969,98,0,
00:00:01.012,76,78.2311706542969,98,0,
00:00:01.016,76,78.2311706542969,98,0,
00:00:01.02,76,78.2311706542969,98,0,
00:00:01.024,76,77.9137878417969,98,0,
00:00:01.028,76,77.9137878417969,98,0,
00:00:01.032,76,77.9137878417969,98,0,
00:00:01.036,76,77.5548934936523,98,0,
00:00:01.04,76,77.5548934936523,98,0,
00:00:01.044,76,77.5548934936523,98,0,
00:00:01.048,76,77.1642608642578,98,0,
00:00:01.052,76,77.1642608642578,98,0,
00:00:01.056,76,77.1642608642578,98,0,
00:00:01.06,76,77.1642608642578,98,0,
00:00:01.064,76,76.7541046142578,98,0,
00:00:01.068,76,76.7541046142578,98,0,
00:00:01.072,76,76.7541046142578,98,0,
00:00:01.076,76,76.3439407348633,98,0,
00:00:01.08,76,76.3439407348633,98,0,
00:00:01.084,76,76.3439407348633,98,0,
00:00:01.088,76,75.9435424804688,98,0,
00:00:01.092,76,75.9435424804688,98,0,
00:00:01.096,76,75.9435424804688,98,0,
00:00:01.1,76,75.9435424804688,98,0,
00:00:01.104,76,75.5651168823242,98,0,
00:00:01.108,76,75.5651168823242,98,0,
00:00:01.112,76,75.5651168823242,98,0,
00:00:01.116,76,75.2233123779297,98,0,
00:00:01.12,76,75.2233123779297,98,0,
00:00:01.124,76,75.2233123779297,98,0,
00:00:01.128,76,74.9132537841797,98,0,
00:00:01.132,76,74.9132537841797,98,0,
00:00:01.136,76,74.9132537841797,98,0,
00:00:01.14,76,74.9132537841797,98,0,
00:00:01.144,76,74.6398086547852,98,0,
00:00:01.148,76,74.6398086547852,98,0,
00:00:01.152,76,74.6398086547852,98,0,
00:00:01.156,76,74.4005508422852,98,0,
00:00:01.16,76,74.4005508422852,98,0,
00:00:01.164,76,74.4005508422852,98,0,
00:00:01.168,76,74.1954650878906,98,0,
00:00:01.172,76,74.1954650878906,98,0,
00:00:01.176,76,74.1954650878906,98,0,
00:00:01.18,76,74.1954650878906,98,0,
00:00:01.184,76,74.0221252441406,98,0,
00:00:01.188,76,74.0221252441406,98,0,
00:00:01.192,76,74.0221252441406,98,0,
00:00:01.196,76,73.8878479003906,98,0,
00:00:01.2,76,73.8878479003906,98,0,
00:00:01.204,76,73.8878479003906,98,0,
00:00:01.208,76,73.7877502441406,98,0,
00:00:01.212,76,73.7877502441406,98,0,
00:00:01.216,76,73.7877502441406,98,0,
00:00:01.22,76,73.7877502441406,98,0,
00:00:01.224,76,73.7242660522461,98,0,
00:00:01.228,76,73.7242660522461,98,0,
00:00:01.232,76,73.7242660522461,98,0,
00:00:01.236,76,73.6900863647461,98,0,
00:00:01.24,76,73.6900863647461,98,0,
00:00:01.244,76,73.6900863647461,98,0,
00:00:01.248,76,73.6754379272461,98,0,
00:00:01.252,76,73.6754379272461,98,0,
00:00:01.256,76,73.6754379272461,98,0,
00:00:01.26,76,73.6754379272461,98,0,
00:00:01.264,76,73.6803207397461,98,0,
00:00:01.268,76,73.6803207397461,98,0,
00:00:01.272,76,73.6803207397461,98,0,
00:00:01.276,76,73.6925277709961,98,0,
00:00:01.28,76,73.6925277709961,98,0,
00:00:01.284,76,73.6925277709961,98,0,
00:00:01.288,76,73.7047348022461,98,0,
00:00:01.292,76,73.7047348022461,98,0,
00:00:01.296,76,73.7047348022461,98,0,
00:00:01.3,76,73.7047348022461,98,0,
00:00:01.304,76,73.7193832397461,98,0,
00:00:01.308,76,73.7193832397461,98,0,
00:00:01.312,76,73.7193832397461,98,0,
00:00:01.316,76,73.7340316772461,98,0,
00:00:01.32,76,73.7340316772461,98,0,
00:00:01.324,76,73.7340316772461,98,0,
00:00:01.328,76,73.7511291503906,98,0,
00:00:01.332,76,73.7511291503906,98,0,
00:00:01.336,76,73.7511291503906,98,0,
00:00:01.34,76,73.7511291503906,98,0,
00:00:01.344,76,73.7731018066406,98,0,
00:00:01.348,76,73.7731018066406,98,0,
00:00:01.352,76,73.7731018066406,98,0,
00:00:01.356,76,73.7975158691406,98,0,
00:00:01.36,76,73.7975158691406,98,0,
00:00:01.364,76,73.7975158691406,98,0,
00:00:01.368,76,73.8219299316406,98,0,
00:00:01.372,76,73.8219299316406,98,0,
00:00:01.376,76,73.8219299316406,98,0,
00:00:01.38,76,73.8219299316406,98,0,
00:00:01.384,76,73.8512268066406,98,0,
00:00:01.388,76,73.8512268066406,98,0,
00:00:01.392,76,73.8512268066406,98,0,
00:00:01.396,76,73.9269104003906,98,0,
00:00:01.4,76,73.9269104003906,98,0,
00:00:01.404,76,73.9269104003906,98,0,
00:00:01.408,76,74.1466369628906,98,0,
00:00:01.412,76,74.1466369628906,98,0,
00:00:01.416,76,74.1466369628906,98,0,
00:00:01.42,76,74.1466369628906,98,0,
00:00:01.424,76,74.6398086547852,98,0,
00:00:01.428,76,74.6398086547852,98,0,
00:00:01.432,76,74.6398086547852,98,0,
00:00:01.436,76,75.5211715698242,98,0,
00:00:01.44,76,75.5211715698242,98,0,
00:00:01.444,76,75.5211715698242,98,0,
00:00:01.448,76,76.8566436767578,98,0,
00:00:01.452,76,76.8566436767578,98,0,
00:00:01.456,76,76.8566436767578,98,0,
00:00:01.46,76,76.8566436767578,98,0,
00:00:01.464,76,78.6095962524414,98,0,
00:00:01.468,76,78.6095962524414,98,0,
00:00:01.472,76,78.6095962524414,98,0,
00:00:01.476,76,80.6457595825195,98,0,
00:00:01.48,76,80.6457595825195,98,0,
00:00:01.484,76,80.6457595825195,98,0,
00:00:01.488,76,82.7624969482422,98,0,
00:00:01.492,76,82.7624969482422,98,0,
00:00:01.496,76,82.7624969482422,98,0,
00:00:01.5,76,82.7624969482422,98,0,
00:00:01.504,76,84.7547149658203,98,0,
00:00:01.508,76,84.7547149658203,98,0,
00:00:01.512,76,84.7547149658203,98,0,
00:00:01.516,76,86.4515151977539,98,0,
00:00:01.52,76,86.4515151977539,98,0,
00:00:01.524,76,86.4515151977539,98,0,
00:00:01.528,76,87.7503662109375,98,0,
00:00:01.532,76,87.7503662109375,98,0,
00:00:01.536,76,87.7503662109375,98,0,
00:00:01.54,76,87.7503662109375,98,0,
00:00:01.544,76,88.597541809082,98,0,
00:00:01.548,76,88.597541809082,98,0,
00:00:01.552,76,88.597541809082,98,0,
00:00:01.556,76,89.0028228759766,98,0,
00:00:01.56,76,89.0028228759766,98,0,
00:00:01.564,76,89.0028228759766,98,0,
00:00:01.568,76,89.0150299072266,98,0,
00:00:01.572,76,89.0150299072266,98,0,
00:00:01.576,76,89.0150299072266,98,0,
00:00:01.58,76,89.0150299072266,98,0,
00:00:01.584,76,88.707405090332,98,0,
00:00:01.588,76,88.707405090332,98,0,
00:00:01.592,76,88.707405090332,98,0,
00:00:01.596,76,88.1458740234375,98,0,
00:00:01.6,76,88.1458740234375,98,0,
00:00:01.604,76,88.1458740234375,98,0,
00:00:01.608,76,87.401237487793,98,0,
00:00:01.612,76,87.401237487793,98,0,
00:00:01.616,76,87.401237487793,98,0,
00:00:01.62,76,87.401237487793,98,0,
00:00:01.624,76,86.5271987915039,98,0,
00:00:01.628,76,86.5271987915039,98,0,
00:00:01.632,76,86.5271987915039,98,0,
00:00:01.636,76,85.5677108764648,98,0,
00:00:01.64,76,85.5677108764648,98,0,
00:00:01.644,76,85.5677108764648,98,0,
00:00:01.648,76,84.5593948364258,98,0,
00:00:01.652,76,84.5593948364258,98,0,
00:00:01.656,76,84.5593948364258,98,0,
00:00:01.66,76,84.5593948364258,98,0,
00:00:01.664,76,83.5632858276367,98,0,
00:00:01.668,76,83.5632858276367,98,0,
00:00:01.672,76,83.5632858276367,98,0,
00:00:01.676,76,82.6282119750977,98,0,
00:00:01.68,76,82.6282119750977,98,0,
00:00:01.684,76,82.6282119750977,98,0,
00:00:01.688,76,81.8078918457031,98,0,
00:00:01.692,76,81.8078918457031,98,0,
00:00:01.696,76,81.8078918457031,98,0,
00:00:01.7,76,81.8078918457031,98,0,
00:00:01.704,76,81.1389312744141,98,0,
00:00:01.708,76,81.1389312744141,98,0,
00:00:01.712,76,81.1389312744141,98,0,
00:00:01.716,77,80.6408767700195,98,0,
00:00:01.72,77,80.6408767700195,98,0,
00:00:01.724,77,80.6408767700195,98,0,
00:00:01.728,77,80.3137283325195,98,0,
00:00:01.732,77,80.3137283325195,98,0,
00:00:01.736,77,80.3137283325195,98,0,
00:00:01.74,77,80.3137283325195,98,0,
00:00:01.744,77,80.137939453125,98,0,
00:00:01.748,77,80.137939453125,98,0,
00:00:01.752,77,80.137939453125,98,0,
00:00:01.756,77,80.079345703125,98,0,
00:00:01.76,77,80.079345703125,98,0,
00:00:01.764,77,80.079345703125,98,0,
00:00:01.768,77,80.093994140625,98,0,
00:00:01.772,77,80.093994140625,98,0,
00:00:01.776,77,80.093994140625,98,0,
00:00:01.78,77,80.093994140625,98,0,
00:00:01.784,77,80.133056640625,98,0,
00:00:01.788,77,80.133056640625,98,0,
00:00:01.792,77,80.133056640625,98,0,
00:00:01.796,77,80.150146484375,98,0,
00:00:01.8,77,80.150146484375,98,0,
00:00:01.804,77,80.150146484375,98,0,
00:00:01.808,77,80.113525390625,98,0,
00:00:01.812,77,80.113525390625,98,0,
00:00:01.816,77,80.113525390625,98,0,
00:00:01.82,77,80.113525390625,98,0,
00:00:01.824,77,80.003662109375,98,0,
00:00:01.828,77,80.003662109375,98,0,
00:00:01.832,77,80.003662109375,98,0,
00:00:01.836,77,79.810791015625,98,0,
00:00:01.84,77,79.810791015625,98,0,
00:00:01.844,77,79.810791015625,98,0,
00:00:01.848,77,79.5422286987305,98,0,
00:00:01.852,77,79.5422286987305,98,0,
00:00:01.856,77,79.5422286987305,98,0,
00:00:01.86,77,79.5422286987305,98,0,
00:00:01.864,77,79.2150726318359,98,0,
00:00:01.868,77,79.2150726318359,98,0,
00:00:01.872,77,79.2150726318359,98,0,
00:00:01.876,77,78.8464202880859,98,0,
00:00:01.88,77,78.8464202880859,98,0,
00:00:01.884,77,78.8464202880859,98,0,
00:00:01.888,77,78.4557876586914,98,0,
00:00:01.892,77,78.4557876586914,98,0,
00:00:01.896,77,78.4557876586914,98,0,
00:00:01.9,77,78.4557876586914,98,0,
00:00:01.904,77,78.0602722167969,98,0,
00:00:01.908,77,78.0602722167969,98,0,
00:00:01.912,77,78.0602722167969,98,0,
00:00:01.916,77,77.6671981811523,98,0,
00:00:01.92,77,77.6671981811523,98,0,
00:00:01.924,77,77.6671981811523,98,0,
00:00:01.928,77,77.2912216186523,98,0,
00:00:01.932,77,77.2912216186523,98,0,
00:00:01.936,77,77.2912216186523,98,0,
00:00:01.94,77,77.2912216186523,98,0,
00:00:01.944,77,76.9347686767578,98,0,
00:00:01.948,77,76.9347686767578,98,0,
00:00:01.952,77,76.9347686767578,98,0,
00:00:01.956,77,76.6002883911133,98,0,
00:00:01.96,77,76.6002883911133,98,0,
00:00:01.964,77,76.6002883911133,98,0,
00:00:01.968,77,76.2926712036133,98,0,
00:00:01.972,77,76.2926712036133,98,0,
00:00:01.976,77,76.2926712036133,98,0,
00:00:01.98,77,76.2926712036133,98,0,
00:00:01.984,77,76.0143432617188,98,0,
00:00:01.988,77,76.0143432617188,98,0,
00:00:01.992,77,76.0143432617188,98,0,
00:00:01.996,77,75.7702026367188,98,0,
00:00:02,77,75.7702026367188,98,0,
00:00:02.004,77,75.7702026367188,98,0,
00:00:02.008,77,75.5626754760742,98,0,
00:00:02.012,77,75.5626754760742,98,0,
00:00:02.016,77,75.5626754760742,98,0,
00:00:02.02,77,75.5626754760742,98,0,
00:00:02.024,77,75.3917770385742,98,0,
00:00:02.028,77,75.3917770385742,98,0,
00:00:02.032,77,75.3917770385742,98,0,
00:00:02.036,77,75.2574996948242,98,0,
00:00:02.04,77,75.2574996948242,98,0,
00:00:02.044,77,75.2574996948242,98,0,
00:00:02.048,77,75.1549530029297,98,0,
00:00:02.052,77,75.1549530029297,98,0,
00:00:02.056,77,75.1549530029297,98,0,
00:00:02.06,77,75.1549530029297,98,0,
00:00:02.064,77,75.0865936279297,98,0,
00:00:02.068,77,75.0865936279297,98,0,
00:00:02.072,77,75.0865936279297,98,0,
00:00:02.076,77,75.0426483154297,98,0,
00:00:02.08,77,75.0426483154297,98,0,
00:00:02.084,77,75.0426483154297,98,0,
00:00:02.088,77,75.0206756591797,98,0,
00:00:02.092,77,75.0206756591797,98,0,
00:00:02.096,77,75.0206756591797,98,0,
00:00:02.1,77,75.0206756591797,98,0,
00:00:02.104,77,75.0157928466797,98,0,
00:00:02.108,77,75.0157928466797,98,0,
00:00:02.112,77,75.0157928466797,98,0,
00:00:02.116,77,75.0255584716797,98,0,
00:00:02.12,77,75.0255584716797,98,0,
00:00:02.124,77,75.0255584716797,98,0,
00:00:02.128,77,75.0377655029297,98,0,
00:00:02.132,77,75.0377655029297,98,0,
00:00:02.136,77,75.0377655029297,98,0,
00:00:02.14,77,75.0377655029297,98,0,
00:00:02.144,77,75.0548553466797,98,0,
00:00:02.148,77,75.0548553466797,98,0,
00:00:02.152,77,75.0548553466797,98,0,
00:00:02.156,77,75.0695037841797,98,0,
00:00:02.16,77,75.0695037841797,98,0,
00:00:02.164,77,75.0695037841797,98,0,
00:00:02.168,77,75.0841522216797,98,0,
00:00:02.172,77,75.0841522216797,98,0,
00:00:02.176,77,75.0841522216797,98,0,
00:00:02.18,77,75.0841522216797,98,0,
00:00:02.184,77,75.0939178466797,98,0,
00:00:02.188,77,75.0939178466797,98,0,
00:00:02.192,77,75.0939178466797,98,0,
00:00:02.196,77,75.1110076904297,98,0,
00:00:02.2,77,75.1110076904297,98,0,
00:00:02.204,77,75.1110076904297,98,0,
00:00:02.208,77,75.1793670654297,98,0,
00:00:02.212,77,75.1793670654297,98,0,
00:00:02.216,77,75.1793670654297,98,0,
00:00:02.22,77,75.1793670654297,98,0,
00:00:02.224,77,75.3893356323242,98,0,
00:00:02.228,77,75.3893356323242,98,0,
00:00:02.232,77,75.3893356323242,98,0,
00:00:02.236,77,75.8678588867188,98,0,
00:00:02.24,77,75.8678588867188,98,0,
00:00:02.244,77,75.8678588867188,98,0,
00:00:02.248,77,76.7321243286133,98,0,
00:00:02.252,77,76.7321243286133,98,0,
00:00:02.256,77,76.7321243286133,98,0,
00:00:02.26,77,76.7321243286133,98,0,
00:00:02.264,77,78.0382995605469,98,0,
00:00:02.268,77,78.0382995605469,98,0,
00:00:02.272,77,78.0382995605469,98,0,
00:00:02.276,77,79.754638671875,98,0,
00:00:02.28,77,79.754638671875,98,0,
00:00:02.284,77,79.754638671875,98,0,
00:00:02.288,77,81.7492904663086,98,0,
00:00:02.292,77,81.7492904663086,98,0,
00:00:02.296,77,81.7492904663086,98,0,
00:00:02.3,77,81.7492904663086,98,0,
00:00:02.304,77,83.8440551757813,98,0,
00:00:02.308,77,83.8440551757813,98,0,
00:00:02.312,77,83.8440551757813,98,0,
00:00:02.316,77,85.8362731933594,98,0,
00:00:02.32,77,85.8362731933594,98,0,
00:00:02.324,77,85.8362731933594,98,0,
00:00:02.328,77,87.559928894043,98,0,
00:00:02.332,77,87.559928894043,98,0,
00:00:02.336,77,87.559928894043,98,0,
00:00:02.34,77,87.559928894043,98,0,
00:00:02.344,77,88.9100494384766,98,0,
00:00:02.348,77,88.9100494384766,98,0,
00:00:02.352,77,88.9100494384766,98,0,
00:00:02.356,77,89.8402404785156,98,0,
00:00:02.36,77,89.8402404785156,98,0,
00:00:02.364,77,89.8402404785156,98,0,
00:00:02.368,77,90.3456192016602,98,0,
00:00:02.372,77,90.3456192016602,98,0,
00:00:02.376,77,90.3456192016602,98,0,
00:00:02.38,77,90.3456192016602,98,0,
00:00:02.384,77,90.4676895141602,98,0,
00:00:02.388,77,90.4676895141602,98,0,
00:00:02.392,77,90.4676895141602,98,0,
00:00:02.396,77,90.2650527954102,98,0,
00:00:02.4,77,90.2650527954102,98,0,
00:00:02.404,77,90.2650527954102,98,0,
00:00:02.408,77,89.8085021972656,98,0,
00:00:02.412,77,89.8085021972656,98,0,
00:00:02.416,77,89.8085021972656,98,0,
00:00:02.42,77,89.8085021972656,98,0,
00:00:02.424,77,89.1566314697266,98,0,
00:00:02.428,77,89.1566314697266,98,0,
00:00:02.432,77,89.1566314697266,98,0,
00:00:02.436,77,88.348518371582,98,0,
00:00:02.44,77,88.348518371582,98,0,
00:00:02.444,77,88.348518371582,98,0,
00:00:02.448,77,87.413444519043,98,0,
00:00:02.452,77,87.413444519043,98,0,
00:00:02.456,77,87.413444519043,98,0,
00:00:02.46,77,87.413444519043,98,0,
00:00:02.464,77,86.3929214477539,98,0,
00:00:02.468,77,86.3929214477539,98,0,
00:00:02.472,77,86.3929214477539,98,0,
00:00:02.476,77,85.3357772827148,98,0,
00:00:02.48,77,85.3357772827148,98,0,
00:00:02.484,77,85.3357772827148,98,0,
00:00:02.488,77,84.3103713989258,98,0,
00:00:02.492,77,84.3103713989258,98,0,
00:00:02.496,77,84.3103713989258,98,0,
00:00:02.5,77,84.3103713989258,98,0,
00:00:02.504,77,83.3728561401367,98,0,
00:00:02.508,77,83.3728561401367,98,0,
00:00:02.512,77,83.3728561401367,98,0,
00:00:02.516,77,82.5745010375977,98,0,
00:00:02.52,77,82.5745010375977,98,0,
00:00:02.524,77,82.5745010375977,98,0,
00:00:02.528,77,81.9519348144531,98,0,
00:00:02.532,77,81.9519348144531,98,0,
00:00:02.536,77,81.9519348144531,98,0,
00:00:02.54,77,81.9519348144531,98,0,
00:00:02.544,77,81.5075912475586,98,0,
00:00:02.548,77,81.5075912475586,98,0,
00:00:02.552,77,81.5075912475586,98,0,
00:00:02.556,77,81.2268218994141,98,0,
00:00:02.56,77,81.2268218994141,98,0,
00:00:02.564,77,81.2268218994141,98,0,
00:00:02.568,77,81.0730133056641,98,0,
00:00:02.572,77,81.0730133056641,98,0,
00:00:02.576,77,81.0730133056641,98,0,
00:00:02.58,77,81.0730133056641,98,0,
00:00:02.584,77,81.0095367431641,98,0,
00:00:02.588,77,81.0095367431641,98,0,
00:00:02.592,77,81.0095367431641,98,0,
00:00:02.596,77,80.9802398681641,98,0,
00:00:02.6,77,80.9802398681641,98,0,
00:00:02.604,77,80.9802398681641,98,0,
00:00:02.608,77,80.9460601806641,98,0,
00:00:02.612,77,80.9460601806641,98,0,
00:00:02.616,77,80.9460601806641,98,0,
00:00:02.62,77,80.9460601806641,98,0,
00:00:02.624,77,80.8703765869141,98,0,
00:00:02.628,77,80.8703765869141,98,0,
00:00:02.632,77,80.8703765869141,98,0,
00:00:02.636,77,80.7336502075195,98,0,
00:00:02.64,77,80.7336502075195,98,0,
00:00:02.644,77,80.7336502075195,98,0,
00:00:02.648,77,80.5285720825195,98,0,
00:00:02.652,77,80.5285720825195,98,0,
00:00:02.656,77,80.5285720825195,98,0,
00:00:02.66,77,80.5285720825195,98,0,
00:00:02.664,77,80.2551345825195,98,0,
00:00:02.668,77,80.2551345825195,98,0,
00:00:02.672,77,80.2551345825195,98,0,
00:00:02.676,77,79.923095703125,98,0,
00:00:02.68,77,79.923095703125,98,0,
00:00:02.684,77,79.923095703125,98,0,
00:00:02.688,77,79.5446701049805,98,0,
00:00:02.692,77,79.5446701049805,98,0,
00:00:02.696,77,79.5446701049805,98,0,
00:00:02.7,77,79.5446701049805,98,0,
00:00:02.704,77,79.1320648193359,98,0,
00:00:02.708,77,79.1320648193359,98,0,
00:00:02.712,77,79.1320648193359,98,0,
00:00:02.716,77,78.7023696899414,98,0,
00:00:02.72,77,78.7023696899414,98,0,
00:00:02.724,77,78.7023696899414,98,0,
00:00:02.728,77,78.2702407836914,98,0,
00:00:02.732,77,78.2702407836914,98,0,
00:00:02.736,77,78.2702407836914,98,0,
00:00:02.74,77,78.2702407836914,98,0,
00:00:02.744,77,77.8405456542969,98,0,
00:00:02.748,77,77.8405456542969,98,0,
00:00:02.752,77,77.8405456542969,98,0,
00:00:02.756,77,77.4230575561523,98,0,
00:00:02.76,77,77.4230575561523,98,0,
00:00:02.764,77,77.4230575561523,98,0,
00:00:02.768,77,77.0226593017578,98,0,
00:00:02.772,77,77.0226593017578,98,0,
00:00:02.776,77,77.0226593017578,98,0,
00:00:02.78,77,77.0226593017578,98,0,
00:00:02.784,77,76.6442337036133,98,0,
00:00:02.788,77,76.6442337036133,98,0,
00:00:02.792,77,76.6442337036133,98,0,
00:00:02.796,77,76.2951126098633,98,0,
00:00:02.8,77,76.2951126098633,98,0,
00:00:02.804,77,76.2951126098633,98,0,
00:00:02.808,77,75.9850463867188,98,0,
00:00:02.812,77,75.9850463867188,98,0,
00:00:02.816,77,75.9850463867188,98,0,
00:00:02.82,77,75.9850463867188,98,0,
00:00:02.824,77,75.7238082885742,98,0,
00:00:02.828,77,75.7238082885742,98,0,
00:00:02.832,77,75.7238082885742,98,0,
00:00:02.836,77,75.5016403198242,98,0,
00:00:02.84,77,75.5016403198242,98,0,
00:00:02.844,77,75.5016403198242,98,0,
00:00:02.848,77,75.3234176635742,98,0,
00:00:02.852,77,75.3234176635742,98,0,
00:00:02.856,77,75.3234176635742,98,0,
00:00:02.86,77,75.3234176635742,98,0,
00:00:02.864,77,75.1818084716797,98,0,
00:00:02.868,77,75.1818084716797,98,0,
00:00:02.872,77,75.1818084716797,98,0,
00:00:02.876,77,75.0670623779297,98,0,
00:00:02.88,77,75.0670623779297,98,0,
00:00:02.884,77,75.0670623779297,98,0,
00:00:02.888,77,74.9742889404297,98,0,
00:00:02.892,77,74.9742889404297,98,0,
00:00:02.896,77,74.9742889404297,98,0,
00:00:02.9,77,74.9742889404297,98,0,
00:00:02.904,77,74.9059295654297,98,0,
00:00:02.908,77,74.9059295654297,98,0,
00:00:02.912,77,74.9059295654297,98,0,
00:00:02.916,77,74.8546600341797,98,0,
00:00:02.92,77,74.8546600341797,98,0,
00:00:02.924,77,74.8546600341797,98,0,
00:00:02.928,77,74.8155975341797,98,0,
00:00:02.932,77,74.8155975341797,98,0,
00:00:02.936,77,74.8155975341797,98,0,
00:00:02.94,77,74.8155975341797,98,0,
00:00:02.944,77,74.7814178466797,98,0,
00:00:02.948,77,74.7814178466797,98,0,
00:00:02.952,77,74.7814178466797,98,0,
00:00:02.956,77,74.7472305297852,98,0,
00:00:02.96,77,74.7472305297852,98,0,
00:00:02.964,77,74.7472305297852,98,0,
00:00:02.968,77,74.7106094360352,98,0,
00:00:02.972,77,74.7106094360352,98,0,
00:00:02.976,77,74.7106094360352,98,0,
00:00:02.98,77,74.7106094360352,98,0,
00:00:02.984,77,74.6788711547852,98,0,
00:00:02.988,77,74.6788711547852,98,0,
00:00:02.992,77,74.6788711547852,98,0,
00:00:02.996,77,74.6617813110352,98,0,
00:00:03,77,74.6617813110352,98,0,
00:00:03.004,77,74.6617813110352,98,0,
00:00:03.008,77,74.7032852172852,98,0,
00:00:03.012,77,74.7032852172852,98,0,
00:00:03.016,77,74.7032852172852,98,0,
00:00:03.02,77,74.7032852172852,98,0,
00:00:03.024,77,74.9034881591797,98,0,
00:00:03.028,77,74.9034881591797,98,0,
00:00:03.032,77,74.9034881591797,98,0,
00:00:03.036,77,75.4137496948242,98,0,
00:00:03.04,77,75.4137496948242,98,0,
00:00:03.044,77,75.4137496948242,98,0,
00:00:03.048,77,76.3634719848633,98,0,
00:00:03.052,77,76.3634719848633,98,0,
00:00:03.056,77,76.3634719848633,98,0,
00:00:03.06,77,76.3634719848633,98,0,
00:00:03.064,77,77.8258972167969,98,0,
00:00:03.068,77,77.8258972167969,98,0,
00:00:03.072,77,77.8258972167969,98,0,
00:00:03.076,77,79.776611328125,98,0,
00:00:03.08,77,79.776611328125,98,0,
00:00:03.084,77,79.776611328125,98,0,
00:00:03.088,77,82.0764465332031,98,0,
00:00:03.092,77,82.0764465332031,98,0,
00:00:03.096,77,82.0764465332031,98,0,
00:00:03.1,77,82.0764465332031,98,0,
00:00:03.104,77,84.5130081176758,98,0,
00:00:03.108,77,84.5130081176758,98,0,
00:00:03.112,77,84.5130081176758,98,0,
00:00:03.116,77,86.8567962646484,98,0,
00:00:03.12,77,86.8567962646484,98,0,
00:00:03.124,77,86.8567962646484,98,0,
00:00:03.128,77,88.9198150634766,98,0,
00:00:03.132,77,88.9198150634766,98,0,
00:00:03.136,77,88.9198150634766,98,0,
00:00:03.14,77,88.9198150634766,98,0,
00:00:03.144,77,90.5775527954102,98,0,
00:00:03.148,77,90.5775527954102,98,0,
00:00:03.152,77,90.5775527954102,98,0,
00:00:03.156,77,91.7665405273438,98,0,
00:00:03.16,77,91.7665405273438,98,0,
00:00:03.164,77,91.7665405273438,98,0,
00:00:03.168,77,92.4745559692383,98,0,
00:00:03.172,77,92.4745559692383,98,0,
00:00:03.176,77,92.4745559692383,98,0,
00:00:03.18,77,92.4745559692383,98,0,
00:00:03.184,77,92.7455520629883,98,0,
00:00:03.188,77,92.7455520629883,98,0,
00:00:03.192,77,92.7455520629883,98,0,
00:00:03.196,77,92.6430130004883,98,0,
00:00:03.2,77,92.6430130004883,98,0,
00:00:03.204,77,92.6430130004883,98,0,
00:00:03.208,77,92.2572708129883,98,0,
00:00:03.212,77,92.2572708129883,98,0,
00:00:03.216,77,92.2572708129883,98,0,
00:00:03.22,77,92.2572708129883,98,0,
00:00:03.224,77,91.6542282104492,98,0,
00:00:03.228,77,91.6542282104492,98,0,
00:00:03.232,77,91.6542282104492,98,0,
00:00:03.236,77,90.8851776123047,98,0,
00:00:03.24,77,90.8851776123047,98,0,
00:00:03.244,77,90.8851776123047,98,0,
00:00:03.248,77,89.9769592285156,98,0,
00:00:03.252,77,89.9769592285156,98,0,
00:00:03.256,77,89.9769592285156,98,0,
00:00:03.26,77,89.9769592285156,98,0,
00:00:03.264,77,88.9539947509766,98,0,
00:00:03.268,77,88.9539947509766,98,0,
00:00:03.272,77,88.9539947509766,98,0,
00:00:03.276,77,87.8382568359375,98,0,
00:00:03.28,77,87.8382568359375,98,0,
00:00:03.284,77,87.8382568359375,98,0,
00:00:03.288,77,86.6736831665039,98,0,
00:00:03.292,77,86.6736831665039,98,0,
00:00:03.296,77,86.6736831665039,98,0,
00:00:03.3,77,86.6736831665039,98,0,
00:00:03.304,77,85.5115585327148,98,0,
00:00:03.308,77,85.5115585327148,98,0,
00:00:03.312,77,85.5115585327148,98,0,
00:00:03.316,77,84.4129104614258,98,0,
00:00:03.32,77,84.4129104614258,98,0,
00:00:03.324,77,84.4129104614258,98,0,
00:00:03.328,77,83.4290084838867,98,0,
00:00:03.332,77,83.4290084838867,98,0,
00:00:03.336,77,83.4290084838867,98,0,
00:00:03.34,77,83.4290084838867,98,0,
00:00:03.344,77,82.5964736938477,98,0,
00:00:03.348,77,82.5964736938477,98,0,
00:00:03.352,77,82.5964736938477,98,0,
00:00:03.356,77,81.9348449707031,98,0,
00:00:03.36,77,81.9348449707031,98,0,
00:00:03.364,77,81.9348449707031,98,0,
00:00:03.368,77,81.4343490600586,98,0,
00:00:03.372,77,81.4343490600586,98,0,
00:00:03.376,77,81.4343490600586,98,0,
00:00:03.38,77,81.4343490600586,98,0,
00:00:03.384,76,81.0803375244141,98,0,
00:00:03.388,76,81.0803375244141,98,0,
00:00:03.392,76,81.0803375244141,98,0,
00:00:03.396,76,80.8337554931641,98,0,
00:00:03.4,76,80.8337554931641,98,0,
00:00:03.404,76,80.8337554931641,98,0,
00:00:03.408,76,80.6530838012695,98,0,
00:00:03.412,76,80.6530838012695,98,0,
00:00:03.416,76,80.6530838012695,98,0,
00:00:03.42,76,80.6530838012695,98,0,
00:00:03.424,76,80.4943923950195,98,0,
00:00:03.428,76,80.4943923950195,98,0,
00:00:03.432,76,80.4943923950195,98,0,
00:00:03.436,76,80.3210525512695,98,0,
00:00:03.44,76,80.3210525512695,98,0,
00:00:03.444,76,80.3210525512695,98,0,
00:00:03.448,76,80.101318359375,98,0,
00:00:03.452,76,80.101318359375,98,0,
00:00:03.456,76,80.101318359375,98,0,
00:00:03.46,76,80.101318359375,98,0,
00:00:03.464,76,79.820556640625,98,0,
00:00:03.468,76,79.820556640625,98,0,
00:00:03.472,76,79.820556640625,98,0,
00:00:03.476,76,79.4811935424805,98,0,
00:00:03.48,76,79.4811935424805,98,0,
00:00:03.484,76,79.4811935424805,98,0,
00:00:03.488,76,79.0832366943359,98,0,
00:00:03.492,76,79.0832366943359,98,0,
00:00:03.496,76,79.0832366943359,98,0,
00:00:03.5,76,79.0832366943359,98,0,
00:00:03.504,76,78.6462173461914,98,0,
00:00:03.508,76,78.6462173461914,98,0,
00:00:03.512,76,78.6462173461914,98,0,
00:00:03.516,76,78.1799011230469,98,0,
00:00:03.52,76,78.1799011230469,98,0,
00:00:03.524,76,78.1799011230469,98,0,
00:00:03.528,76,77.7038192749023,98,0,
00:00:03.532,76,77.7038192749023,98,0,
00:00:03.536,76,77.7038192749023,98,0,
00:00:03.54,76,77.7038192749023,98,0,
00:00:03.544,76,77.2204132080078,98,0,
00:00:03.548,76,77.2204132080078,98,0,
00:00:03.552,76,77.2204132080078,98,0,
00:00:03.556,76,76.7443313598633,98,0,
00:00:03.56,76,76.7443313598633,98,0,
00:00:03.564,76,76.7443313598633,98,0,
00:00:03.568,76,76.2755813598633,98,0,
00:00:03.572,76,76.2755813598633,98,0,
00:00:03.576,76,76.2755813598633,98,0,
00:00:03.58,76,76.2755813598633,98,0,
00:00:03.584,76,75.8263549804688,98,0,
00:00:03.588,76,75.8263549804688,98,0,
00:00:03.592,76,75.8263549804688,98,0,
00:00:03.596,76,75.3966598510742,98,0,
00:00:03.6,76,75.3966598510742,98,0,
00:00:03.604,76,75.3966598510742,98,0,
00:00:03.608,76,75.0084686279297,98,0,
00:00:03.612,76,75.0084686279297,98,0,
00:00:03.616,76,75.0084686279297,98,0,
00:00:03.62,76,75.0084686279297,98,0,
00:00:03.624,76,74.6642227172852,98,0,
00:00:03.628,76,74.6642227172852,98,0,
00:00:03.632,76,74.6642227172852,98,0,
00:00:03.636,76,74.3688125610352,98,0,
00:00:03.64,76,74.3688125610352,98,0,
00:00:03.644,76,74.3688125610352,98,0,
00:00:03.648,76,74.1295471191406,98,0,
00:00:03.652,76,74.1295471191406,98,0,
00:00:03.656,76,74.1295471191406,98,0,
00:00:03.66,76,74.1295471191406,98,0,
00:00:03.664,76,73.9513244628906,98,0,
00:00:03.668,76,73.9513244628906,98,0,
00:00:03.672,76,73.9513244628906,98,0,
00:00:03.676,76,73.8146057128906,98,0,
00:00:03.68,76,73.8146057128906,98,0,
00:00:03.684,76,73.8146057128906,98,0,
00:00:03.688,76,73.7145004272461,98,0,
00:00:03.692,76,73.7145004272461,98,0,
00:00:03.696,76,73.7145004272461,98,0,
00:00:03.7,76,73.7145004272461,98,0,
00:00:03.704,76,73.6412582397461,98,0,
00:00:03.708,76,73.6412582397461,98,0,
00:00:03.712,76,73.6412582397461,98,0,
00:00:03.716,76,73.5875473022461,98,0,
00:00:03.72,76,73.5875473022461,98,0,
00:00:03.724,76,73.5875473022461,98,0,
00:00:03.728,76,73.5460433959961,98,0,
00:00:03.732,76,73.5460433959961,98,0,
00:00:03.736,76,73.5460433959961,98,0,
00:00:03.74,76,73.5460433959961,98,0,
00:00:03.744,76,73.5143051147461,98,0,
00:00:03.748,76,73.5143051147461,98,0,
00:00:03.752,76,73.5143051147461,98,0,
00:00:03.756,76,73.4874496459961,98,0,
00:00:03.76,76,73.4874496459961,98,0,
00:00:03.764,76,73.4874496459961,98,0,
00:00:03.768,76,73.4630355834961,98,0,
00:00:03.772,76,73.4630355834961,98,0,
00:00:03.776,76,73.4630355834961,98,0,
00:00:03.78,76,73.4630355834961,98,0,
00:00:03.784,76,73.4361801147461,98,0,
00:00:03.788,76,73.4361801147461,98,0,
00:00:03.792,76,73.4361801147461,98,0,
00:00:03.796,76,73.4044418334961,98,0,
00:00:03.8,76,73.4044418334961,98,0,
00:00:03.804,76,73.4044418334961,98,0,
00:00:03.808,76,73.3727035522461,98,0,
00:00:03.812,76,73.3727035522461,98,0,
00:00:03.816,76,73.3727035522461,98,0,
00:00:03.82,76,73.3727035522461,98,0,
00:00:03.824,76,73.3702621459961,98,0,
00:00:03.828,76,73.3702621459961,98,0,
00:00:03.832,76,73.3702621459961,98,0,
00:00:03.836,76,73.4605941772461,98,0,
00:00:03.84,76,73.4605941772461,98,0,
00:00:03.844,76,73.4605941772461,98,0,
00:00:03.848,76,73.7633361816406,98,0,
00:00:03.852,76,73.7633361816406,98,0,
00:00:03.856,76,73.7633361816406,98,0,
00:00:03.86,76,73.7633361816406,98,0,
00:00:03.864,76,74.4176406860352,98,0,
00:00:03.868,76,74.4176406860352,98,0,
00:00:03.872,76,74.4176406860352,98,0,
00:00:03.876,76,75.5480270385742,98,0,
00:00:03.88,76,75.5480270385742,98,0,
00:00:03.884,76,75.5480270385742,98,0,
00:00:03.888,76,77.1886749267578,98,0,
00:00:03.892,76,77.1886749267578,98,0,
00:00:03.896,76,77.1886749267578,98,0,
00:00:03.9,76,77.1886749267578,98,0,
00:00:03.904,76,79.2883224487305,98,0,
00:00:03.908,76,79.2883224487305,98,0,
00:00:03.912,76,79.2883224487305,98,0,
00:00:03.916,76,81.6833724975586,98,0,
00:00:03.92,76,81.6833724975586,98,0,
00:00:03.924,76,81.6833724975586,98,0,
00:00:03.928,76,84.1516723632813,98,0,
00:00:03.932,76,84.1516723632813,98,0,
00:00:03.936,76,84.1516723632813,98,0,
00:00:03.94,76,84.1516723632813,98,0,
00:00:03.944,76,86.4686050415039,98,0,
00:00:03.948,76,86.4686050415039,98,0,
00:00:03.952,76,86.4686050415039,98,0,
00:00:03.956,76,88.451057434082,98,0,
00:00:03.96,76,88.451057434082,98,0,
00:00:03.964,76,88.451057434082,98,0,
00:00:03.968,76,89.9794006347656,98,0,
00:00:03.972,76,89.9794006347656,98,0,
00:00:03.976,76,89.9794006347656,98,0,
00:00:03.98,76,89.9794006347656,98,0,
00:00:03.984,76,91.0048065185547,98,0,
00:00:03.988,76,91.0048065185547,98,0,
00:00:03.992,76,91.0048065185547,98,0,
00:00:03.996,76,91.5370407104492,98,0,
00:00:04,76,91.5370407104492,98,0,
00:00:04.004,76,91.5370407104492,98,0,
00:00:04.008,76,91.6371383666992,98,0,
00:00:04.012,76,91.6371383666992,98,0,
00:00:04.016,76,91.6371383666992,98,0,
00:00:04.02,76,91.6371383666992,98,0,
00:00:04.024,76,91.3929977416992,98,0,
00:00:04.028,76,91.3929977416992,98,0,
00:00:04.032,76,91.3929977416992,98,0,
00:00:04.036,76,90.8876190185547,98,0,
00:00:04.04,76,90.8876190185547,98,0,
00:00:04.044,76,90.8876190185547,98,0,
00:00:04.048,76,90.1918029785156,98,0,
00:00:04.052,76,90.1918029785156,98,0,
00:00:04.056,76,90.1918029785156,98,0,
00:00:04.06,76,90.1918029785156,98,0,
00:00:04.064,76,89.3470687866211,98,0,
00:00:04.068,76,89.3470687866211,98,0,
00:00:04.072,76,89.3470687866211,98,0,
00:00:04.076,76,88.387580871582,98,0,
00:00:04.08,76,88.387580871582,98,0,
00:00:04.084,76,88.387580871582,98,0,
00:00:04.088,76,87.327995300293,98,0,
00:00:04.092,76,87.327995300293,98,0,
00:00:04.096,76,87.327995300293,98,0,
00:00:04.1,76,87.327995300293,98,0,
00:00:04.104,76,86.2073669433594,98,0,
00:00:04.108,76,86.2073669433594,98,0,
00:00:04.112,76,86.2073669433594,98,0,
00:00:04.116,76,85.0672149658203,98,0,
00:00:04.12,76,85.0672149658203,98,0,
00:00:04.124,76,85.0672149658203,98,0,
00:00:04.128,76,83.9661254882813,98,0,
00:00:04.132,76,83.9661254882813,98,0,
00:00:04.136,76,83.9661254882813,98,0,
00:00:04.14,76,83.9661254882813,98,0,
00:00:04.144,76,82.9578094482422,98,0,
00:00:04.148,76,82.9578094482422,98,0,
00:00:04.152,76,82.9578094482422,98,0,
00:00:04.156,76,82.0935363769531,98,0,
00:00:04.16,76,82.0935363769531,98,0,
00:00:04.164,76,82.0935363769531,98,0,
00:00:04.168,76,81.3977279663086,98,0,
00:00:04.172,76,81.3977279663086,98,0,
00:00:04.176,76,81.3977279663086,98,0,
00:00:04.18,76,81.3977279663086,98,0,
00:00:04.184,76,80.8825836181641,98,0,
00:00:04.188,76,80.8825836181641,98,0,
00:00:04.192,76,80.8825836181641,98,0,
00:00:04.196,76,80.5334548950195,98,0,
00:00:04.2,76,80.5334548950195,98,0,
00:00:04.204,76,80.5334548950195,98,0,
00:00:04.208,76,80.3112869262695,98,0,
00:00:04.212,76,80.3112869262695,98,0,
00:00:04.216,76,80.3112869262695,98,0,
00:00:04.22,76,80.3112869262695,98,0,
00:00:04.224,76,80.172119140625,98,0,
00:00:04.228,76,80.172119140625,98,0,
00:00:04.232,76,80.172119140625,98,0,
00:00:04.236,76,80.072021484375,98,0,
00:00:04.24,76,80.072021484375,98,0,
00:00:04.244,76,80.072021484375,98,0,
00:00:04.248,76,79.962158203125,98,0,
00:00:04.252,76,79.962158203125,98,0,
00:00:04.256,76,79.962158203125,98,0,
00:00:04.26,76,79.962158203125,98,0,
00:00:04.264,76,79.813232421875,98,0,
00:00:04.268,76,79.813232421875,98,0,
00:00:04.272,76,79.813232421875,98,0,
00:00:04.276,76,79.6081466674805,98,0,
00:00:04.28,76,79.6081466674805,98,0,
00:00:04.284,76,79.6081466674805,98,0,
00:00:04.288,76,79.3371505737305,98,0,
00:00:04.292,76,79.3371505737305,98,0,
00:00:04.296,76,79.3371505737305,98,0,
00:00:04.3,76,79.3371505737305,98,0,
00:00:04.304,76,79.0002288818359,98,0,
00:00:04.308,76,79.0002288818359,98,0,
00:00:04.312,76,79.0002288818359,98,0,
00:00:04.316,76,78.6120376586914,98,0,
00:00:04.32,76,78.6120376586914,98,0,
00:00:04.324,76,78.6120376586914,98,0,
00:00:04.328,76,78.1799011230469,98,0,
00:00:04.332,76,78.1799011230469,98,0,
00:00:04.336,76,78.1799011230469,98,0,
00:00:04.34,76,78.1799011230469,98,0,
00:00:04.344,76,77.7184677124023,98,0,
00:00:04.348,76,77.7184677124023,98,0,
00:00:04.352,76,77.7184677124023,98,0,
00:00:04.356,76,77.2375030517578,98,0,
00:00:04.36,76,77.2375030517578,98,0,
00:00:04.364,76,77.2375030517578,98,0,
00:00:04.368,76,76.7492141723633,98,0,
00:00:04.372,76,76.7492141723633,98,0,
00:00:04.376,76,76.7492141723633,98,0,
00:00:04.38,76,76.7492141723633,98,0,
00:00:04.384,76,76.2609329223633,98,0,
00:00:04.388,76,76.2609329223633,98,0,
00:00:04.392,76,76.2609329223633,98,0,
00:00:04.396,76,75.7872924804688,98,0,
00:00:04.4,76,75.7872924804688,98,0,
00:00:04.404,76,75.7872924804688,98,0,
00:00:04.408,76,75.3356246948242,98,0,
00:00:04.412,76,75.3356246948242,98,0,
00:00:04.416,76,75.3356246948242,98,0,
00:00:04.42,76,75.3356246948242,98,0,
00:00:04.424,76,74.9205780029297,98,0,
00:00:04.428,76,74.9205780029297,98,0,
00:00:04.432,76,74.9205780029297,98,0,
00:00:04.436,76,74.5519180297852,98,0,
00:00:04.44,76,74.5519180297852,98,0,
00:00:04.444,76,74.5519180297852,98,0,
00:00:04.448,76,74.2272033691406,98,0,
00:00:04.452,76,74.2272033691406,98,0,
00:00:04.456,76,74.2272033691406,98,0,
00:00:04.46,76,74.2272033691406,98,0,
00:00:04.464,76,73.9562072753906,98,0,
00:00:04.468,76,73.9562072753906,98,0,
00:00:04.472,76,73.9562072753906,98,0,
00:00:04.476,76,73.7389144897461,98,0,
00:00:04.48,76,73.7389144897461,98,0,
00:00:04.484,76,73.7389144897461,98,0,
00:00:04.488,76,73.5704574584961,98,0,
00:00:04.492,76,73.5704574584961,98,0,
00:00:04.496,76,73.5704574584961,98,0,
00:00:04.5,76,73.5704574584961,98,0,
00:00:04.504,76,73.4435043334961,98,0,
00:00:04.508,76,73.4435043334961,98,0,
00:00:04.512,76,73.4435043334961,98,0,
00:00:04.516,76,73.3507308959961,98,0,
00:00:04.52,76,73.3507308959961,98,0,
00:00:04.524,76,73.3507308959961,98,0,
00:00:04.528,76,73.2799301147461,98,0,
00:00:04.532,76,73.2799301147461,98,0,
00:00:04.536,76,73.2799301147461,98,0,
00:00:04.54,76,73.2799301147461,98,0,
00:00:04.544,76,73.2237701416016,98,0,
00:00:04.548,76,73.2237701416016,98,0,
00:00:04.552,76,73.2237701416016,98,0,
00:00:04.556,76,73.1822662353516,98,0,
00:00:04.56,76,73.1822662353516,98,0,
00:00:04.564,76,73.1822662353516,98,0,
00:00:04.568,76,73.1529693603516,98,0,
00:00:04.572,76,73.1529693603516,98,0,
00:00:04.576,76,73.1529693603516,98,0,
00:00:04.58,76,73.1529693603516,98,0,
00:00:04.584,76,73.1407623291016,98,0,
00:00:04.588,76,73.1407623291016,98,0,
00:00:04.592,76,73.1407623291016,98,0,
00:00:04.596,76,73.1358795166016,98,0,
00:00:04.6,76,73.1358795166016,98,0,
00:00:04.604,76,73.1358795166016,98,0,
00:00:04.608,76,73.1309967041016,98,0,
00:00:04.612,76,73.1309967041016,98,0,
00:00:04.616,76,73.1309967041016,98,0,
00:00:04.62,76,73.1309967041016,98,0,
00:00:04.624,76,73.1236724853516,98,0,
00:00:04.628,76,73.1236724853516,98,0,
00:00:04.632,76,73.1236724853516,98,0,
00:00:04.636,76,73.1090240478516,98,0,
00:00:04.64,76,73.1090240478516,98,0,
00:00:04.644,76,73.1090240478516,98,0,
00:00:04.648,76,73.0870513916016,98,0,
00:00:04.652,76,73.0870513916016,98,0,
00:00:04.656,76,73.0870513916016,98,0,
00:00:04.66,76,73.0870513916016,98,0,
00:00:04.664,76,73.0577545166016,98,0,
00:00:04.668,76,73.0577545166016,98,0,
00:00:04.672,76,73.0577545166016,98,0,
00:00:04.676,76,73.0357818603516,98,0,
00:00:04.68,76,73.0357818603516,98,0,
00:00:04.684,76,73.0357818603516,98,0,
00:00:04.688,76,73.0357818603516,98,0,
00:00:04.692,76,73.0357818603516,98,0,
00:00:04.696,76,73.0357818603516,98,0,
00:00:04.7,76,73.0357818603516,98,0,
00:00:04.704,76,73.1065826416016,98,0,
00:00:04.708,76,73.1065826416016,98,0,
00:00:04.712,76,73.1065826416016,98,0,
00:00:04.716,76,73.3458480834961,98,0,
00:00:04.72,76,73.3458480834961,98,0,
00:00:04.724,76,73.3458480834961,98,0,
00:00:04.728,76,73.8976135253906,98,0,
00:00:04.732,76,73.8976135253906,98,0,
00:00:04.736,76,73.8976135253906,98,0,
00:00:04.74,76,73.8976135253906,98,0,
00:00:04.744,76,74.8937225341797,98,0,
00:00:04.748,76,74.8937225341797,98,0,
00:00:04.752,76,74.8937225341797,98,0,
00:00:04.756,76,76.4098587036133,98,0,
00:00:04.76,76,76.4098587036133,98,0,
00:00:04.764,76,76.4098587036133,98,0,
00:00:04.768,76,78.4216079711914,98,0,
00:00:04.772,76,78.4216079711914,98,0,
00:00:04.776,76,78.4216079711914,98,0,
00:00:04.78,76,78.4216079711914,98,0,
00:00:04.784,76,80.7971343994141,98,0,
00:00:04.788,76,80.7971343994141,98,0,
00:00:04.792,76,80.7971343994141,98,0,
00:00:04.796,76,83.3264694213867,98,0,
00:00:04.8,76,83.3264694213867,98,0,
00:00:04.804,76,83.3264694213867,98,0,
00:00:04.808,76,85.7654724121094,98,0,
00:00:04.812,76,85.7654724121094,98,0,
00:00:04.816,76,85.7654724121094,98,0,
00:00:04.82,76,85.7654724121094,98,0,
00:00:04.824,76,87.9090576171875,98,0,
00:00:04.828,76,87.9090576171875,98,0,
00:00:04.832,76,87.9090576171875,98,0,
00:00:04.836,76,89.6131820678711,98,0,
00:00:04.84,76,89.6131820678711,98,0,
00:00:04.844,76,89.6131820678711,98,0,
00:00:04.848,76,90.8094940185547,98,0,
00:00:04.852,76,90.8094940185547,98,0,
00:00:04.856,76,90.8094940185547,98,0,
00:00:04.86,76,90.8094940185547,98,0,
00:00:04.864,76,91.4882125854492,98,0,
00:00:04.868,76,91.4882125854492,98,0,
00:00:04.872,76,91.4882125854492,98,0,
00:00:04.876,76,91.6908493041992,98,0,
00:00:04.88,76,91.6908493041992,98,0,
00:00:04.884,76,91.6908493041992,98,0,
00:00:04.888,76,91.4955368041992,98,0,
00:00:04.892,76,91.4955368041992,98,0,
00:00:04.896,76,91.4955368041992,98,0,
00:00:04.9,76,91.4955368041992,98,0,
00:00:04.904,76,90.9950408935547,98,0,
00:00:04.908,76,90.9950408935547,98,0,
00:00:04.912,76,90.9950408935547,98,0,
00:00:04.916,76,90.2699356079102,98,0,
00:00:04.92,76,90.2699356079102,98,0,
00:00:04.924,76,90.2699356079102,98,0,
00:00:04.928,76,89.3788070678711,98,0,
00:00:04.932,76,89.3788070678711,98,0,
00:00:04.936,76,89.3788070678711,98,0,
00:00:04.94,76,89.3788070678711,98,0,
00:00:04.944,76,88.360725402832,98,0,
00:00:04.948,76,88.360725402832,98,0,
00:00:04.952,76,88.360725402832,98,0,
00:00:04.956,76,87.252311706543,98,0,
00:00:04.96,76,87.252311706543,98,0,
00:00:04.964,76,87.252311706543,98,0,
00:00:04.968,76,86.0852966308594,98,0,
00:00:04.972,76,86.0852966308594,98,0,
00:00:04.976,76,86.0852966308594,98,0,
00:00:04.98,76,86.0852966308594,98,0,
00:00:04.984,76,84.9134063720703,98,0,
00:00:04.988,76,84.9134063720703,98,0,
00:00:04.992,76,84.9134063720703,98,0,
00:00:04.996,76,83.7952270507813,98,0,
00:00:05,76,83.7952270507813,98,0,
00:00:05.004,76,83.7952270507813,98,0,
00:00:05.008,76,82.7893524169922,98,0,
00:00:05.012,76,82.7893524169922,98,0,
00:00:05.016,76,82.7893524169922,98,0,
00:00:05.02,76,82.7893524169922,98,0,
00:00:05.024,76,81.9421691894531,98,0,
00:00:05.028,76,81.9421691894531,98,0,
00:00:05.032,76,81.9421691894531,98,0,
00:00:05.036,76,81.2854232788086,98,0,
00:00:05.04,76,81.2854232788086,98,0,
00:00:05.044,76,81.2854232788086,98,0,
00:00:05.048,74,80.8191070556641,98,0,
00:00:05.052,74,80.8191070556641,98,0,
00:00:05.056,74,80.8191070556641,98,0,
00:00:05.06,74,80.8191070556641,98,0,
00:00:05.064,74,80.5212478637695,98,0,
00:00:05.068,74,80.5212478637695,98,0,
00:00:05.072,74,80.5212478637695,98,0,
00:00:05.076,74,80.3625564575195,98,0,
00:00:05.08,74,80.3625564575195,98,0,
00:00:05.084,74,80.3625564575195,98,0,
00:00:05.088,74,80.2990798950195,98,0,
00:00:05.092,74,80.2990798950195,98,0,
00:00:05.096,74,80.2990798950195,98,0,
00:00:05.1,74,80.2990798950195,98,0,
00:00:05.104,74,80.2746658325195,98,0,
00:00:05.108,74,80.2746658325195,98,0,
00:00:05.112,74,80.2746658325195,98,0,
00:00:05.116,74,80.245361328125,98,0,
00:00:05.12,74,80.245361328125,98,0,
00:00:05.124,74,80.245361328125,98,0,
00:00:05.128,74,80.174560546875,98,0,
00:00:05.132,74,80.174560546875,98,0,
00:00:05.136,74,80.174560546875,98,0,
00:00:05.14,74,80.174560546875,98,0,
00:00:05.144,74,80.030517578125,98,0,
00:00:05.148,74,80.030517578125,98,0,
00:00:05.152,74,80.030517578125,98,0,
00:00:05.156,74,79.798583984375,98,0,
00:00:05.16,74,79.798583984375,98,0,
00:00:05.164,74,79.798583984375,98,0,
00:00:05.168,74,79.4811935424805,98,0,
00:00:05.172,74,79.4811935424805,98,0,
00:00:05.176,74,79.4811935424805,98,0,
00:00:05.18,74,79.4811935424805,98,0,
00:00:05.184,74,79.0905609130859,98,0,
00:00:05.188,74,79.0905609130859,98,0,
00:00:05.192,74,79.0905609130859,98,0,
00:00:05.196,74,78.6364517211914,98,0,
00:00:05.2,74,78.6364517211914,98,0,
00:00:05.204,74,78.6364517211914,98,0,
00:00:05.208,74,78.1408386230469,98,0,
00:00:05.212,74,78.1408386230469,98,0,
00:00:05.216,74,78.1408386230469,98,0,
00:00:05.22,74,78.1408386230469,98,0,
00:00:05.224,74,77.6256942749023,98,0,
00:00:05.228,74,77.6256942749023,98,0,
00:00:05.232,74,77.6256942749023,98,0,
00:00:05.236,74,77.1032257080078,98,0,
00:00:05.24,74,77.1032257080078,98,0,
00:00:05.244,74,77.1032257080078,98,0,
00:00:05.248,74,76.5929641723633,98,0,
00:00:05.252,74,76.5929641723633,98,0,
00:00:05.256,74,76.5929641723633,98,0,
00:00:05.26,74,76.5929641723633,98,0,
00:00:05.264,74,76.1119995117188,98,0,
00:00:05.268,74,76.1119995117188,98,0,
00:00:05.272,74,76.1119995117188,98,0,
00:00:05.276,74,75.6700973510742,98,0,
00:00:05.28,74,75.6700973510742,98,0,
00:00:05.284,74,75.6700973510742,98,0,
00:00:05.288,74,75.2697067260742,98,0,
00:00:05.292,74,75.2697067260742,98,0,
00:00:05.296,74,75.2697067260742,98,0,
00:00:05.3,74,75.2697067260742,98,0,
00:00:05.304,74,74.9156951904297,98,0,
00:00:05.308,74,74.9156951904297,98,0,
00:00:05.312,74,74.9156951904297,98,0,
00:00:05.316,74,74.6056289672852,98,0,
00:00:05.32,74,74.6056289672852,98,0,
00:00:05.324,74,74.6056289672852,98,0,
00:00:05.328,74,74.3395156860352,98,0,
00:00:05.332,74,74.3395156860352,98,0,
00:00:05.336,74,74.3395156860352,98,0,
00:00:05.34,74,74.3395156860352,98,0,
00:00:05.344,74,74.1100158691406,98,0,
00:00:05.348,74,74.1100158691406,98,0,
00:00:05.352,74,74.1100158691406,98,0,
00:00:05.356,74,73.9195861816406,98,0,
00:00:05.36,74,73.9195861816406,98,0,
00:00:05.364,74,73.9195861816406,98,0,
00:00:05.368,74,73.7657775878906,98,0,
00:00:05.372,74,73.7657775878906,98,0,
00:00:05.376,74,73.7657775878906,98,0,
00:00:05.38,74,73.7657775878906,98,0,
00:00:05.384,74,73.6485824584961,98,0,
00:00:05.388,74,73.6485824584961,98,0,
00:00:05.392,74,73.6485824584961,98,0,
00:00:05.396,74,73.5655746459961,98,0,
00:00:05.4,74,73.5655746459961,98,0,
00:00:05.404,74,73.5655746459961,98,0,
00:00:05.408,74,73.5143051147461,98,0,
00:00:05.412,74,73.5143051147461,98,0,
00:00:05.416,74,73.5143051147461,98,0,
00:00:05.42,74,73.5143051147461,98,0,
00:00:05.424,74,73.4874496459961,98,0,
00:00:05.428,74,73.4874496459961,98,0,
00:00:05.432,74,73.4874496459961,98,0,
00:00:05.436,74,73.4801254272461,98,0,
00:00:05.44,74,73.4801254272461,98,0,
00:00:05.444,74,73.4801254272461,98,0,
00:00:05.448,74,73.4947738647461,98,0,
00:00:05.452,74,73.4947738647461,98,0,
00:00:05.456,74,73.4947738647461,98,0,
00:00:05.46,74,73.4947738647461,98,0,
00:00:05.464,74,73.5167465209961,98,0,
00:00:05.468,74,73.5167465209961,98,0,
00:00:05.472,74,73.5167465209961,98,0,
00:00:05.476,74,73.5484848022461,98,0,
00:00:05.48,74,73.5484848022461,98,0,
00:00:05.484,74,73.5484848022461,98,0,
00:00:05.488,74,73.5924301147461,98,0,
00:00:05.492,74,73.5924301147461,98,0,
00:00:05.496,74,73.5924301147461,98,0,
00:00:05.5,74,73.5924301147461,98,0,
00:00:05.504,74,73.6388168334961,98,0,
00:00:05.508,74,73.6388168334961,98,0,
00:00:05.512,74,73.6388168334961,98,0,
00:00:05.516,74,73.6803207397461,98,0,
00:00:05.52,74,73.6803207397461,98,0,
00:00:05.524,74,73.6803207397461,98,0,
00:00:05.528,74,73.7193832397461,98,0,
00:00:05.532,74,73.7193832397461,98,0,
00:00:05.536,74,73.7193832397461,98,0,
00:00:05.54,74,73.7193832397461,98,0,
00:00:05.544,74,73.7511291503906,98,0,
00:00:05.548,74,73.7511291503906,98,0,
00:00:05.552,74,73.7511291503906,98,0,
00:00:05.556,74,73.7706604003906,98,0,
00:00:05.56,74,73.7706604003906,98,0,
00:00:05.564,74,73.7706604003906,98,0,
00:00:05.568,74,73.7779846191406,98,0,
00:00:05.572,74,73.7779846191406,98,0,
00:00:05.576,74,73.7779846191406,98,0,
00:00:05.58,74,73.7779846191406,98,0,
00:00:05.584,74,73.7901916503906,98,0,
00:00:05.588,74,73.7901916503906,98,0,
00:00:05.592,74,73.7901916503906,98,0,
00:00:05.596,74,73.8658752441406,98,0,
00:00:05.6,74,73.8658752441406,98,0,
00:00:05.604,74,73.8658752441406,98,0,
00:00:05.608,74,74.1173400878906,98,0,
00:00:05.612,74,74.1173400878906,98,0,
00:00:05.616,74,74.1173400878906,98,0,
00:00:05.62,74,74.1173400878906,98,0,
00:00:05.624,74,74.6861953735352,98,0,
00:00:05.628,74,74.6861953735352,98,0,
00:00:05.632,74,74.6861953735352,98,0,
00:00:05.636,74,75.6993942260742,98,0,
00:00:05.64,74,75.6993942260742,98,0,
00:00:05.644,74,75.6993942260742,98,0,
00:00:05.648,74,77.2033233642578,98,0,
00:00:05.652,74,77.2033233642578,98,0,
00:00:05.656,74,77.2033233642578,98,0,
00:00:05.66,74,77.2033233642578,98,0,
00:00:05.664,74,79.1369476318359,98,0,
00:00:05.668,74,79.1369476318359,98,0,
00:00:05.672,74,79.1369476318359,98,0,
00:00:05.676,74,81.3464584350586,98,0,
00:00:05.68,74,81.3464584350586,98,0,
00:00:05.684,74,81.3464584350586,98,0,
00:00:05.688,74,83.6096725463867,98,0,
00:00:05.692,74,83.6096725463867,98,0,
00:00:05.696,74,83.6096725463867,98,0,
00:00:05.7,74,83.6096725463867,98,0,
00:00:05.704,74,85.7093124389648,98,0,
00:00:05.708,74,85.7093124389648,98,0,
00:00:05.712,74,85.7093124389648,98,0,
00:00:05.716,74,87.489128112793,98,0,
00:00:05.72,74,87.489128112793,98,0,
00:00:05.724,74,87.489128112793,98,0,
00:00:05.728,74,88.8514556884766,98,0,
00:00:05.732,74,88.8514556884766,98,0,
00:00:05.736,74,88.8514556884766,98,0,
00:00:05.74,74,88.8514556884766,98,0,
00:00:05.744,74,89.7572326660156,98,0,
00:00:05.748,74,89.7572326660156,98,0,
00:00:05.752,74,89.7572326660156,98,0,
00:00:05.756,74,90.2162170410156,98,0,
00:00:05.76,74,90.2162170410156,98,0,
00:00:05.764,74,90.2162170410156,98,0,
00:00:05.768,74,90.2699356079102,98,0,
00:00:05.772,74,90.2699356079102,98,0,
00:00:05.776,74,90.2699356079102,98,0,
00:00:05.78,74,90.2699356079102,98,0,
00:00:05.784,74,89.9818420410156,98,0,
00:00:05.788,74,89.9818420410156,98,0,
00:00:05.792,74,89.9818420410156,98,0,
00:00:05.796,74,89.4154281616211,98,0,
00:00:05.8,74,89.4154281616211,98,0,
00:00:05.804,74,89.4154281616211,98,0,
00:00:05.808,74,88.634162902832,98,0,
00:00:05.812,74,88.634162902832,98,0,
00:00:05.816,74,88.634162902832,98,0,
00:00:05.82,74,88.634162902832,98,0,
00:00:05.824,74,87.686882019043,98,0,
00:00:05.828,74,87.686882019043,98,0,
00:00:05.832,74,87.686882019043,98,0,
00:00:05.836,74,86.6272964477539,98,0,
00:00:05.84,74,86.6272964477539,98,0,
00:00:05.844,74,86.6272964477539,98,0,
00:00:05.848,74,85.5066757202148,98,0,
00:00:05.852,74,85.5066757202148,98,0,
00:00:05.856,74,85.5066757202148,98,0,
00:00:05.86,74,85.5066757202148,98,0,
00:00:05.864,74,84.3860549926758,98,0,
00:00:05.868,74,84.3860549926758,98,0,
00:00:05.872,74,84.3860549926758,98,0,
00:00:05.876,74,83.3337936401367,98,0,
00:00:05.88,74,83.3337936401367,98,0,
00:00:05.884,74,83.3337936401367,98,0,
00:00:05.888,74,82.4133682250977,98,0,
00:00:05.892,74,82.4133682250977,98,0,
00:00:05.896,74,82.4133682250977,98,0,
00:00:05.9,74,82.4133682250977,98,0,
00:00:05.904,74,81.6687240600586,98,0,
00:00:05.908,74,81.6687240600586,98,0,
00:00:05.912,74,81.6687240600586,98,0,
00:00:05.916,74,81.1242828369141,98,0,
00:00:05.92,74,81.1242828369141,98,0,
00:00:05.924,74,81.1242828369141,98,0,
00:00:05.928,74,80.7824859619141,98,0,
00:00:05.932,74,80.7824859619141,98,0,
00:00:05.936,74,80.7824859619141,98,0,
00:00:05.94,74,80.7824859619141,98,0,
00:00:05.944,74,80.6140213012695,98,0,
00:00:05.948,74,80.6140213012695,98,0,
00:00:05.952,74,80.6140213012695,98,0,
00:00:05.956,74,80.5725173950195,98,0,
00:00:05.96,74,80.5725173950195,98,0,
00:00:05.964,74,80.5725173950195,98,0,
00:00:05.968,74,80.6115798950195,98,0,
00:00:05.972,74,80.6115798950195,98,0,
00:00:05.976,74,80.6115798950195,98,0,
00:00:05.98,74,80.6115798950195,98,0,
00:00:05.984,74,80.6774978637695,98,0,
00:00:05.988,74,80.6774978637695,98,0,
00:00:05.992,74,80.6774978637695,98,0,
00:00:05.996,74,80.7238845825195,98,0,
00:00:06,74,80.7238845825195,98,0,
00:00:06.004,74,80.7238845825195,98,0,
00:00:06.008,74,80.7214431762695,98,0,
00:00:06.012,74,80.7214431762695,98,0,
00:00:06.016,74,80.7214431762695,98,0,
00:00:06.02,74,80.7214431762695,98,0,
00:00:06.024,74,80.6457595825195,98,0,
00:00:06.028,74,80.6457595825195,98,0,
00:00:06.032,74,80.6457595825195,98,0,
00:00:06.036,74,80.4821853637695,98,0,
00:00:06.04,74,80.4821853637695,98,0,
00:00:06.044,74,80.4821853637695,98,0,
00:00:06.048,74,80.228271484375,98,0,
00:00:06.052,74,80.228271484375,98,0,
00:00:06.056,74,80.228271484375,98,0,
00:00:06.06,74,80.228271484375,98,0,
00:00:06.064,74,79.893798828125,98,0,
00:00:06.068,74,79.893798828125,98,0,
00:00:06.072,74,79.893798828125,98,0,
00:00:06.076,74,79.4909591674805,98,0,
00:00:06.08,74,79.4909591674805,98,0,
00:00:06.084,74,79.4909591674805,98,0,
00:00:06.088,74,79.0368499755859,98,0,
00:00:06.092,74,79.0368499755859,98,0,
00:00:06.096,74,79.0368499755859,98,0,
00:00:06.1,74,79.0368499755859,98,0,
00:00:06.104,74,78.5632095336914,98,0,
00:00:06.108,74,78.5632095336914,98,0,
00:00:06.112,74,78.5632095336914,98,0,
00:00:06.116,74,78.0846862792969,98,0,
00:00:06.12,74,78.0846862792969,98,0,
00:00:06.124,74,78.0846862792969,98,0,
00:00:06.128,74,77.6256942749023,98,0,
00:00:06.132,74,77.6256942749023,98,0,
00:00:06.136,74,77.6256942749023,98,0,
00:00:06.14,74,77.6256942749023,98,0,
00:00:06.144,74,77.1959991455078,98,0,
00:00:06.148,74,77.1959991455078,98,0,
00:00:06.152,74,77.1959991455078,98,0,
00:00:06.156,74,76.8004913330078,98,0,
00:00:06.16,74,76.8004913330078,98,0,
00:00:06.164,74,76.8004913330078,98,0,
00:00:06.168,74,76.4415969848633,98,0,
00:00:06.172,74,76.4415969848633,98,0,
00:00:06.176,74,76.4415969848633,98,0,
00:00:06.18,74,76.4415969848633,98,0,
00:00:06.184,74,76.1119995117188,98,0,
00:00:06.188,74,76.1119995117188,98,0,
00:00:06.192,74,76.1119995117188,98,0,
00:00:06.196,74,75.8190307617188,98,0,
00:00:06.2,74,75.8190307617188,98,0,
00:00:06.204,74,75.8190307617188,98,0,
00:00:06.208,74,75.5602340698242,98,0,
00:00:06.212,74,75.5602340698242,98,0,
00:00:06.216,74,75.5602340698242,98,0,
00:00:06.22,74,75.5602340698242,98,0,
00:00:06.224,74,75.3356246948242,98,0,
00:00:06.228,74,75.3356246948242,98,0,
00:00:06.232,74,75.3356246948242,98,0,
00:00:06.236,74,75.1427459716797,98,0,
00:00:06.24,74,75.1427459716797,98,0,
00:00:06.244,74,75.1427459716797,98,0,
00:00:06.248,74,74.9791717529297,98,0,
00:00:06.252,74,74.9791717529297,98,0,
00:00:06.256,74,74.9791717529297,98,0,
00:00:06.26,74,74.9791717529297,98,0,
00:00:06.264,74,74.8497772216797,98,0,
00:00:06.268,74,74.8497772216797,98,0,
00:00:06.272,74,74.8497772216797,98,0,
00:00:06.276,74,74.7472305297852,98,0,
00:00:06.28,74,74.7472305297852,98,0,
00:00:06.284,74,74.7472305297852,98,0,
00:00:06.288,74,74.6739883422852,98,0,
00:00:06.292,74,74.6739883422852,98,0,
00:00:06.296,74,74.6739883422852,98,0,
00:00:06.3,74,74.6739883422852,98,0,
00:00:06.304,74,74.6227188110352,98,0,
00:00:06.308,74,74.6227188110352,98,0,
00:00:06.312,74,74.6227188110352,98,0,
00:00:06.316,74,74.5909805297852,98,0,
00:00:06.32,74,74.5909805297852,98,0,
00:00:06.324,74,74.5909805297852,98,0,
00:00:06.328,74,74.5690078735352,98,0,
00:00:06.332,74,74.5690078735352,98,0,
00:00:06.336,74,74.5690078735352,98,0,
00:00:06.34,74,74.5690078735352,98,0,
00:00:06.344,74,74.5470352172852,98,0,
00:00:06.348,74,74.5470352172852,98,0,
00:00:06.352,74,74.5470352172852,98,0,
00:00:06.356,74,74.5275039672852,98,0,
00:00:06.36,74,74.5275039672852,98,0,
00:00:06.364,74,74.5275039672852,98,0,
00:00:06.368,74,74.5079727172852,98,0,
00:00:06.372,74,74.5079727172852,98,0,
00:00:06.376,74,74.5079727172852,98,0,
00:00:06.38,74,74.5079727172852,98,0,
00:00:06.384,74,74.4957656860352,98,0,
00:00:06.388,74,74.4957656860352,98,0,
00:00:06.392,74,74.4957656860352,98,0,
00:00:06.396,74,74.4982070922852,98,0,
00:00:06.4,74,74.4982070922852,98,0,
00:00:06.404,74,74.4982070922852,98,0,
00:00:06.408,74,74.5714492797852,98,0,
00:00:06.412,74,74.5714492797852,98,0,
00:00:06.416,74,74.5714492797852,98,0,
00:00:06.42,74,74.5714492797852,98,0,
00:00:06.424,74,74.8204803466797,98,0,
00:00:06.428,74,74.8204803466797,98,0,
00:00:06.432,74,74.8204803466797,98,0,
00:00:06.436,74,75.3722457885742,98,0,
00:00:06.44,74,75.3722457885742,98,0,
00:00:06.444,74,75.3722457885742,98,0,
00:00:06.448,74,76.3439407348633,98,0,
00:00:06.452,74,76.3439407348633,98,0,
00:00:06.456,74,76.3439407348633,98,0,
00:00:06.46,74,76.3439407348633,98,0,
00:00:06.464,74,77.7868347167969,98,0,
00:00:06.468,74,77.7868347167969,98,0,
00:00:06.472,74,77.7868347167969,98,0,
00:00:06.476,74,79.6545333862305,98,0,
00:00:06.48,74,79.6545333862305,98,0,
00:00:06.484,74,79.6545333862305,98,0,
00:00:06.488,74,81.8054504394531,98,0,
00:00:06.492,74,81.8054504394531,98,0,
00:00:06.496,74,81.8054504394531,98,0,
00:00:06.5,74,81.8054504394531,98,0,
00:00:06.504,74,84.0393676757813,98,0,
00:00:06.508,74,84.0393676757813,98,0,
00:00:06.512,74,84.0393676757813,98,0,
00:00:06.516,74,86.1512145996094,98,0,
00:00:06.52,74,86.1512145996094,98,0,
00:00:06.524,74,86.1512145996094,98,0,
00:00:06.528,74,87.9798583984375,98,0,
00:00:06.532,74,87.9798583984375,98,0,
00:00:06.536,74,87.9798583984375,98,0,
00:00:06.54,74,87.9798583984375,98,0,
00:00:06.544,74,89.4300765991211,98,0,
00:00:06.548,74,89.4300765991211,98,0,
00:00:06.552,74,89.4300765991211,98,0,
00:00:06.556,74,90.4530410766602,98,0,
00:00:06.56,74,90.4530410766602,98,0,
00:00:06.564,74,90.4530410766602,98,0,
00:00:06.568,74,91.0487518310547,98,0,
00:00:06.572,74,91.0487518310547,98,0,
00:00:06.576,74,91.0487518310547,98,0,
00:00:06.58,74,91.0487518310547,98,0,
00:00:06.584,74,91.2489471435547,98,0,
00:00:06.588,74,91.2489471435547,98,0,
00:00:06.592,74,91.2489471435547,98,0,
00:00:06.596,74,91.1097869873047,98,0,
00:00:06.6,74,91.1097869873047,98,0,
00:00:06.604,74,91.1097869873047,98,0,
00:00:06.608,74,90.6898574829102,98,0,
00:00:06.612,74,90.6898574829102,98,0,
00:00:06.616,74,90.6898574829102,98,0,
00:00:06.62,74,90.6898574829102,98,0,
00:00:06.624,74,90.0428771972656,98,0,
00:00:06.628,74,90.0428771972656,98,0,
00:00:06.632,74,90.0428771972656,98,0,
00:00:06.636,74,89.2152252197266,98,0,
00:00:06.64,74,89.2152252197266,98,0,
00:00:06.644,74,89.2152252197266,98,0,
00:00:06.648,74,88.2435302734375,98,0,
00:00:06.652,74,88.2435302734375,98,0,
00:00:06.656,74,88.2435302734375,98,0,
00:00:06.66,74,88.2435302734375,98,0,
00:00:06.664,74,87.1692962646484,98,0,
00:00:06.668,74,87.1692962646484,98,0,
00:00:06.672,74,87.1692962646484,98,0,
00:00:06.676,74,86.0486755371094,98,0,
00:00:06.68,74,86.0486755371094,98,0,
00:00:06.684,74,86.0486755371094,98,0,
00:00:06.688,74,84.9378204345703,98,0,
00:00:06.692,74,84.9378204345703,98,0,
00:00:06.696,74,84.9378204345703,98,0,
00:00:06.7,74,84.9378204345703,98,0,
00:00:06.704,74,83.9050903320313,98,0,
00:00:06.708,74,83.9050903320313,98,0,
00:00:06.712,74,83.9050903320313,98,0,
00:00:06.716,74,83.0066375732422,98,0,
00:00:06.72,74,83.0066375732422,98,0,
00:00:06.724,74,83.0066375732422,98,0,
00:00:06.728,74,82.2888565063477,98,0,
00:00:06.732,74,82.2888565063477,98,0,
00:00:06.736,74,82.2888565063477,98,0,
00:00:06.74,74,82.2888565063477,98,0,
00:00:06.744,74,81.7712707519531,98,0,
00:00:06.748,74,81.7712707519531,98,0,
00:00:06.752,74,81.7712707519531,98,0,
00:00:06.756,74,81.4441146850586,98,0,
00:00:06.76,74,81.4441146850586,98,0,
00:00:06.764,74,81.4441146850586,98,0,
00:00:06.768,74,81.2829818725586,98,0,
00:00:06.772,74,81.2829818725586,98,0,
00:00:06.776,74,81.2829818725586,98,0,
00:00:06.78,74,81.2829818725586,98,0,
00:00:06.784,74,81.2365875244141,98,0,
00:00:06.788,74,81.2365875244141,98,0,
00:00:06.792,74,81.2365875244141,98,0,
00:00:06.796,74,81.2463531494141,98,0,
00:00:06.8,74,81.2463531494141,98,0,
00:00:06.804,74,81.2463531494141,98,0,
00:00:06.808,74,81.2658920288086,98,0,
00:00:06.812,74,81.2658920288086,98,0,
00:00:06.816,74,81.2658920288086,98,0,
00:00:06.82,74,81.2658920288086,98,0,
00:00:06.824,74,81.2487945556641,98,0,
00:00:06.828,74,81.2487945556641,98,0,
00:00:06.832,74,81.2487945556641,98,0,
00:00:06.836,74,81.1633453369141,98,0,
00:00:06.84,74,81.1633453369141,98,0,
00:00:06.844,74,81.1633453369141,98,0,
00:00:06.848,74,80.9973297119141,98,0,
00:00:06.852,74,80.9973297119141,98,0,
00:00:06.856,74,80.9973297119141,98,0,
00:00:06.86,74,80.9973297119141,98,0,
00:00:06.864,74,80.7507476806641,98,0,
00:00:06.868,74,80.7507476806641,98,0,
00:00:06.872,74,80.7507476806641,98,0,
00:00:06.876,74,80.4235916137695,98,0,
00:00:06.88,74,80.4235916137695,98,0,
00:00:06.884,74,80.4235916137695,98,0,
00:00:06.888,74,80.028076171875,98,0,
00:00:06.892,74,80.028076171875,98,0,
00:00:06.896,74,80.028076171875,98,0,
00:00:06.9,74,80.028076171875,98,0,
00:00:06.904,74,79.5812911987305,98,0,
00:00:06.908,74,79.5812911987305,98,0,
00:00:06.912,74,79.5812911987305,98,0,
00:00:06.916,74,79.1003265380859,98,0,
00:00:06.92,74,79.1003265380859,98,0,
00:00:06.924,74,79.1003265380859,98,0,
00:00:06.928,74,78.6047134399414,98,0,
00:00:06.932,74,78.6047134399414,98,0,
00:00:06.936,74,78.6047134399414,98,0,
00:00:06.94,74,78.6047134399414,98,0,
00:00:06.944,74,78.1188659667969,98,0,
00:00:06.948,74,78.1188659667969,98,0,
00:00:06.952,74,78.1188659667969,98,0,
00:00:06.956,74,77.6549911499023,98,0,
00:00:06.96,74,77.6549911499023,98,0,
00:00:06.964,74,77.6549911499023,98,0,
00:00:06.968,74,77.2204132080078,98,0,
00:00:06.972,74,77.2204132080078,98,0,
00:00:06.976,74,77.2204132080078,98,0,
00:00:06.98,74,77.2204132080078,98,0,
00:00:06.984,74,76.8224639892578,98,0,
00:00:06.988,74,76.8224639892578,98,0,
00:00:06.992,74,76.8224639892578,98,0,
00:00:06.996,74,76.4660110473633,98,0,
00:00:07,74,76.4660110473633,98,0,
00:00:07.004,74,76.4660110473633,98,0,
00:00:07.008,74,76.1461791992188,98,0,
00:00:07.012,74,76.1461791992188,98,0,
00:00:07.016,74,76.1461791992188,98,0,
00:00:07.02,74,76.1461791992188,98,0,
00:00:07.024,74,75.8629760742188,98,0,
00:00:07.028,74,75.8629760742188,98,0,
00:00:07.032,74,75.8629760742188,98,0,
00:00:07.036,74,75.6188278198242,98,0,
00:00:07.04,74,75.6188278198242,98,0,
00:00:07.044,74,75.6188278198242,98,0,
00:00:07.048,74,75.4113082885742,98,0,
00:00:07.052,74,75.4113082885742,98,0,
00:00:07.056,74,75.4113082885742,98,0,
00:00:07.06,74,75.4113082885742,98,0,
00:00:07.064,74,75.2330780029297,98,0,
00:00:07.068,74,75.2330780029297,98,0,
00:00:07.072,74,75.2330780029297,98,0,
00:00:07.076,74,75.0768280029297,98,0,
00:00:07.08,74,75.0768280029297,98,0,
00:00:07.084,74,75.0768280029297,98,0,
00:00:07.088,74,74.9449920654297,98,0,
00:00:07.092,74,74.9449920654297,98,0,
00:00:07.096,74,74.9449920654297,98,0,
00:00:07.1,74,74.9449920654297,98,0,
00:00:07.104,74,74.8351287841797,98,0,
00:00:07.108,74,74.8351287841797,98,0,
00:00:07.112,74,74.8351287841797,98,0,
00:00:07.116,74,74.7399063110352,98,0,
00:00:07.12,74,74.7399063110352,98,0,
00:00:07.124,74,74.7399063110352,98,0,
00:00:07.128,74,74.6568984985352,98,0,
00:00:07.132,74,74.6568984985352,98,0,
00:00:07.136,74,74.6568984985352,98,0,
00:00:07.14,74,74.6568984985352,98,0,
00:00:07.144,74,74.5934219360352,98,0,
00:00:07.148,74,74.5934219360352,98,0,
00:00:07.152,74,74.5934219360352,98,0,
00:00:07.156,74,74.5494766235352,98,0,
00:00:07.16,74,74.5494766235352,98,0,
00:00:07.164,74,74.5494766235352,98,0,
00:00:07.168,74,74.5397109985352,98,0,
00:00:07.172,74,74.5397109985352,98,0,
00:00:07.176,74,74.5397109985352,98,0,
00:00:07.18,74,74.5397109985352,98,0,
00:00:07.184,74,74.6398086547852,98,0,
00:00:07.188,74,74.6398086547852,98,0,
00:00:07.192,74,74.6398086547852,98,0,
00:00:07.196,74,74.9742889404297,98,0,
00:00:07.2,74,74.9742889404297,98,0,
00:00:07.204,74,74.9742889404297,98,0,
00:00:07.208,74,75.6847457885742,98,0,
00:00:07.212,74,75.6847457885742,98,0,
00:00:07.216,74,75.6847457885742,98,0,
00:00:07.22,74,75.6847457885742,98,0,
00:00:07.224,74,76.8932647705078,98,0,
00:00:07.228,74,76.8932647705078,98,0,
00:00:07.232,74,76.8932647705078,98,0,
00:00:07.236,74,78.6388931274414,98,0,
00:00:07.24,74,78.6388931274414,98,0,
00:00:07.244,74,78.6388931274414,98,0,
00:00:07.248,74,80.8459625244141,98,0,
00:00:07.252,74,80.8459625244141,98,0,
00:00:07.256,74,80.8459625244141,98,0,
00:00:07.26,74,80.8459625244141,98,0,
00:00:07.264,74,83.3386764526367,98,0,
00:00:07.268,74,83.3386764526367,98,0,
00:00:07.272,74,83.3386764526367,98,0,
00:00:07.276,74,85.8875427246094,98,0,
00:00:07.28,74,85.8875427246094,98,0,
00:00:07.284,74,85.8875427246094,98,0,
00:00:07.288,74,88.272834777832,98,0,
00:00:07.292,74,88.272834777832,98,0,
00:00:07.296,74,88.272834777832,98,0,
00:00:07.3,74,88.272834777832,98,0,
00:00:07.304,74,90.3163223266602,98,0,
00:00:07.308,74,90.3163223266602,98,0,
00:00:07.312,74,90.3163223266602,98,0,
00:00:07.316,74,91.9130249023438,98,0,
00:00:07.32,74,91.9130249023438,98,0,
00:00:07.324,74,91.9130249023438,98,0,
00:00:07.328,74,93.0092315673828,98,0,
00:00:07.332,74,93.0092315673828,98,0,
00:00:07.336,74,93.0092315673828,98,0,
00:00:07.34,74,93.0092315673828,98,0,
00:00:07.344,74,93.6122665405273,98,0,
00:00:07.348,74,93.6122665405273,98,0,
00:00:07.352,74,93.6122665405273,98,0,
00:00:07.356,74,93.7636413574219,98,0,
00:00:07.36,74,93.7636413574219,98,0,
00:00:07.364,74,93.7636413574219,98,0,
00:00:07.368,74,93.5317001342773,98,0,
00:00:07.372,74,93.5317001342773,98,0,
00:00:07.376,74,93.5317001342773,98,0,
00:00:07.38,74,93.5317001342773,98,0,
00:00:07.384,74,93.0067901611328,98,0,
00:00:07.388,74,93.0067901611328,98,0,
00:00:07.392,74,93.0067901611328,98,0,
00:00:07.396,74,92.2645950317383,98,0,
00:00:07.4,74,92.2645950317383,98,0,
00:00:07.404,74,92.2645950317383,98,0,
00:00:07.408,74,91.3588180541992,98,0,
00:00:07.412,74,91.3588180541992,98,0,
00:00:07.416,74,91.3588180541992,98,0,
00:00:07.42,74,91.3588180541992,98,0,
00:00:07.424,74,90.3212051391602,98,0,
00:00:07.428,74,90.3212051391602,98,0,
00:00:07.432,74,90.3212051391602,98,0,
00:00:07.436,74,89.1834869384766,98,0,
00:00:07.44,74,89.1834869384766,98,0,
00:00:07.444,74,89.1834869384766,98,0,
00:00:07.448,74,87.9749755859375,98,0,
00:00:07.452,74,87.9749755859375,98,0,
00:00:07.456,74,87.9749755859375,98,0,
00:00:07.46,74,87.9749755859375,98,0,
00:00:07.464,74,86.7396011352539,98,0,
00:00:07.468,74,86.7396011352539,98,0,
00:00:07.472,74,86.7396011352539,98,0,
00:00:07.476,74,85.5359725952148,98,0,
00:00:07.48,74,85.5359725952148,98,0,
00:00:07.484,74,85.5359725952148,98,0,
00:00:07.488,74,84.4275588989258,98,0,
00:00:07.492,74,84.4275588989258,98,0,
00:00:07.496,74,84.4275588989258,98,0,
00:00:07.5,74,84.4275588989258,98,0,
00:00:07.504,74,83.4656295776367,98,0,
00:00:07.508,74,83.4656295776367,98,0,
00:00:07.512,74,83.4656295776367,98,0,
00:00:07.516,74,82.6794815063477,98,0,
00:00:07.52,74,82.6794815063477,98,0,
00:00:07.524,74,82.6794815063477,98,0,
00:00:07.528,74,82.0837707519531,98,0,
00:00:07.532,74,82.0837707519531,98,0,
00:00:07.536,74,82.0837707519531,98,0,
00:00:07.54,74,82.0837707519531,98,0,
00:00:07.544,74,81.6589584350586,98,0,
00:00:07.548,74,81.6589584350586,98,0,
00:00:07.552,74,81.6589584350586,98,0,
00:00:07.556,74,81.3757553100586,98,0,
00:00:07.56,74,81.3757553100586,98,0,
00:00:07.564,74,81.3757553100586,98,0,
00:00:07.568,74,81.1926422119141,98,0,
00:00:07.572,74,81.1926422119141,98,0,
00:00:07.576,74,81.1926422119141,98,0,
00:00:07.58,74,81.1926422119141,98,0,
00:00:07.584,74,81.0534820556641,98,0,
00:00:07.588,74,81.0534820556641,98,0,
00:00:07.592,74,81.0534820556641,98,0,
00:00:07.596,74,80.9143218994141,98,0,
00:00:07.6,74,80.9143218994141,98,0,
00:00:07.604,74,80.9143218994141,98,0,
00:00:07.608,74,80.7312088012695,98,0,
00:00:07.612,74,80.7312088012695,98,0,
00:00:07.616,74,80.7312088012695,98,0,
00:00:07.62,74,80.7312088012695,98,0,
00:00:07.624,74,80.4895095825195,98,0,
00:00:07.628,74,80.4895095825195,98,0,
00:00:07.632,74,80.4895095825195,98,0,
00:00:07.636,74,80.174560546875,98,0,
00:00:07.64,74,80.174560546875,98,0,
00:00:07.644,74,80.174560546875,98,0,
00:00:07.648,74,79.791259765625,98,0,
00:00:07.652,74,79.791259765625,98,0,
00:00:07.656,74,79.791259765625,98,0,
00:00:07.66,74,79.791259765625,98,0,
00:00:07.664,74,79.3469161987305,98,0,
00:00:07.668,74,79.3469161987305,98,0,
00:00:07.672,74,79.3469161987305,98,0,
00:00:07.676,74,78.8439788818359,98,0,
00:00:07.68,74,78.8439788818359,98,0,
00:00:07.684,74,78.8439788818359,98,0,
00:00:07.688,74,78.2970962524414,98,0,
00:00:07.692,74,78.2970962524414,98,0,
00:00:07.696,74,78.2970962524414,98,0,
00:00:07.7,74,78.2970962524414,98,0,
00:00:07.704,74,77.7209091186523,98,0,
00:00:07.708,74,77.7209091186523,98,0,
00:00:07.712,74,77.7209091186523,98,0,
00:00:07.716,74,77.1325225830078,98,0,
00:00:07.72,74,77.1325225830078,98,0,
00:00:07.724,74,77.1325225830078,98,0,
00:00:07.728,74,76.5465774536133,98,0,
00:00:07.732,74,76.5465774536133,98,0,
00:00:07.736,74,76.5465774536133,98,0,
00:00:07.74,74,76.5465774536133,98,0,
00:00:07.744,74,75.9826049804688,98,0,
00:00:07.748,74,75.9826049804688,98,0,
00:00:07.752,74,75.9826049804688,98,0,
00:00:07.756,74,75.4503707885742,98,0,
00:00:07.76,74,75.4503707885742,98,0,
00:00:07.764,74,75.4503707885742,98,0,
00:00:07.768,74,74.9620819091797,98,0,
00:00:07.772,74,74.9620819091797,98,0,
00:00:07.776,74,74.9620819091797,98,0,
00:00:07.78,74,74.9620819091797,98,0,
00:00:07.784,74,74.5201797485352,98,0,
00:00:07.788,74,74.5201797485352,98,0,
00:00:07.792,74,74.5201797485352,98,0,
00:00:07.796,74,74.1368713378906,98,0,
00:00:07.8,74,74.1368713378906,98,0,
00:00:07.804,74,74.1368713378906,98,0,
00:00:07.808,74,73.8097229003906,98,0,
00:00:07.812,74,73.8097229003906,98,0,
00:00:07.816,74,73.8097229003906,98,0,
00:00:07.82,74,73.8097229003906,98,0,
00:00:07.824,74,73.5387191772461,98,0,
00:00:07.828,74,73.5387191772461,98,0,
00:00:07.832,74,73.5387191772461,98,0,
00:00:07.836,74,73.3165512084961,98,0,
00:00:07.84,74,73.3165512084961,98,0,
00:00:07.844,74,73.3165512084961,98,0,
00:00:07.848,74,73.1358795166016,98,0,
00:00:07.852,74,73.1358795166016,98,0,
00:00:07.856,74,73.1358795166016,98,0,
00:00:07.86,74,73.1358795166016,98,0,
00:00:07.864,74,72.9869537353516,98,0,
00:00:07.868,74,72.9869537353516,98,0,
00:00:07.872,74,72.9869537353516,98,0,
00:00:07.876,74,72.8648834228516,98,0,
00:00:07.88,74,72.8648834228516,98,0,
00:00:07.884,74,72.8648834228516,98,0,
00:00:07.888,74,72.7721099853516,98,0,
00:00:07.892,74,72.7721099853516,98,0,
00:00:07.896,74,72.7721099853516,98,0,
00:00:07.9,74,72.7721099853516,98,0,
00:00:07.904,74,72.701301574707,98,0,
00:00:07.908,74,72.701301574707,98,0,
00:00:07.912,74,72.701301574707,98,0,
00:00:07.916,74,72.652473449707,98,0,
00:00:07.92,74,72.652473449707,98,0,
00:00:07.924,74,72.652473449707,98,0,
00:00:07.928,74,72.618293762207,98,0,
00:00:07.932,74,72.618293762207,98,0,
00:00:07.936,74,72.618293762207,98,0,
00:00:07.94,74,72.618293762207,98,0,
00:00:07.944,74,72.601203918457,98,0,
00:00:07.948,74,72.601203918457,98,0,
00:00:07.952,74,72.601203918457,98,0,
00:00:07.956,74,72.630500793457,98,0,
00:00:07.96,74,72.630500793457,98,0,
00:00:07.964,74,72.630500793457,98,0,
00:00:07.968,74,72.7794342041016,98,0,
00:00:07.972,74,72.7794342041016,98,0,
00:00:07.976,74,72.7794342041016,98,0,
00:00:07.98,74,72.7794342041016,98,0,
00:00:07.984,74,73.1920318603516,98,0,
00:00:07.988,74,73.1920318603516,98,0,
00:00:07.992,74,73.1920318603516,98,0,
00:00:07.996,74,74.0270080566406,98,0,
00:00:08,74,74.0270080566406,98,0,
00:00:08.004,74,74.0270080566406,98,0,
00:00:08.008,74,75.4039840698242,98,0,
00:00:08.012,74,75.4039840698242,98,0,
00:00:08.016,74,75.4039840698242,98,0,
00:00:08.02,74,75.4039840698242,98,0,
00:00:08.024,74,77.3449325561523,98,0,
00:00:08.028,74,77.3449325561523,98,0,
00:00:08.032,74,77.3449325561523,98,0,
00:00:08.036,74,79.757080078125,98,0,
00:00:08.04,74,79.757080078125,98,0,
00:00:08.044,74,79.757080078125,98,0,
00:00:08.048,74,82.4451065063477,98,0,
00:00:08.052,74,82.4451065063477,98,0,
00:00:08.056,74,82.4451065063477,98,0,
00:00:08.06,74,82.4451065063477,98,0,
00:00:08.064,74,85.1477813720703,98,0,
00:00:08.068,74,85.1477813720703,98,0,
00:00:08.072,74,85.1477813720703,98,0,
00:00:08.076,74,87.628288269043,98,0,
00:00:08.08,74,87.628288269043,98,0,
00:00:08.084,74,87.628288269043,98,0,
00:00:08.088,74,89.7181625366211,98,0,
00:00:08.092,74,89.7181625366211,98,0,
00:00:08.096,74,89.7181625366211,98,0,
00:00:08.1,74,89.7181625366211,98,0,
00:00:08.104,74,91.3221969604492,98,0,
00:00:08.108,74,91.3221969604492,98,0,
00:00:08.112,74,91.3221969604492,98,0,
00:00:08.116,74,92.3988723754883,98,0,
00:00:08.12,74,92.3988723754883,98,0,
00:00:08.124,74,92.3988723754883,98,0,
00:00:08.128,74,92.9677276611328,98,0,
00:00:08.132,74,92.9677276611328,98,0,
00:00:08.136,74,92.9677276611328,98,0,
00:00:08.14,74,92.9677276611328,98,0,
00:00:08.144,74,93.0849151611328,98,0,
00:00:08.148,74,93.0849151611328,98,0,
00:00:08.152,74,93.0849151611328,98,0,
00:00:08.156,74,92.8383331298828,98,0,
00:00:08.16,74,92.8383331298828,98,0,
00:00:08.164,74,92.8383331298828,98,0,
00:00:08.168,74,92.3109817504883,98,0,
00:00:08.172,74,92.3109817504883,98,0,
00:00:08.176,74,92.3109817504883,98,0,
00:00:08.18,74,92.3109817504883,98,0,
00:00:08.184,74,91.5785446166992,98,0,
00:00:08.188,74,91.5785446166992,98,0,
00:00:08.192,74,91.5785446166992,98,0,
00:00:08.196,74,90.6874160766602,98,0,
00:00:08.2,74,90.6874160766602,98,0,
00:00:08.204,74,90.6874160766602,98,0,
00:00:08.208,74,89.6668930053711,98,0,
00:00:08.212,74,89.6668930053711,98,0,
00:00:08.216,74,89.6668930053711,98,0,
00:00:08.22,74,89.6668930053711,98,0,
00:00:08.224,74,88.536506652832,98,0,
00:00:08.228,74,88.536506652832,98,0,
00:00:08.232,74,88.536506652832,98,0,
00:00:08.236,74,87.323112487793,98,0,
00:00:08.24,74,87.323112487793,98,0,
00:00:08.244,74,87.323112487793,98,0,
00:00:08.248,74,86.0730895996094,98,0,
00:00:08.252,74,86.0730895996094,98,0,
00:00:08.256,74,86.0730895996094,98,0,
00:00:08.26,74,86.0730895996094,98,0,
00:00:08.264,74,84.8523712158203,98,0,
00:00:08.268,74,84.8523712158203,98,0,
00:00:08.272,74,84.8523712158203,98,0,
00:00:08.276,74,83.7268600463867,98,0,
00:00:08.28,74,83.7268600463867,98,0,
00:00:08.284,74,83.7268600463867,98,0,
00:00:08.288,74,82.7527313232422,98,0,
00:00:08.292,74,82.7527313232422,98,0,
00:00:08.296,74,82.7527313232422,98,0,
00:00:08.3,74,82.7527313232422,98,0,
00:00:08.304,74,81.9568176269531,98,0,
00:00:08.308,74,81.9568176269531,98,0,
00:00:08.312,74,81.9568176269531,98,0,
00:00:08.316,74,81.3513412475586,98,0,
00:00:08.32,74,81.3513412475586,98,0,
00:00:08.324,74,81.3513412475586,98,0,
00:00:08.328,74,80.9192047119141,98,0,
00:00:08.332,74,80.9192047119141,98,0,
00:00:08.336,74,80.9192047119141,98,0,
00:00:08.34,74,80.9192047119141,98,0,
00:00:08.344,74,80.6286697387695,98,0,
00:00:08.348,74,80.6286697387695,98,0,
00:00:08.352,74,80.6286697387695,98,0,
00:00:08.356,74,80.4309158325195,98,0,
00:00:08.36,74,80.4309158325195,98,0,
00:00:08.364,74,80.4309158325195,98,0,
00:00:08.368,74,80.2795486450195,98,0,
00:00:08.372,74,80.2795486450195,98,0,
00:00:08.376,74,80.2795486450195,98,0,
00:00:08.38,74,80.2795486450195,98,0,
00:00:08.384,74,80.118408203125,98,0,
00:00:08.388,74,80.118408203125,98,0,
00:00:08.392,74,80.118408203125,98,0,
00:00:08.396,74,79.918212890625,98,0,
00:00:08.4,74,79.918212890625,98,0,
00:00:08.404,74,79.918212890625,98,0,
00:00:08.408,74,79.6447677612305,98,0,
00:00:08.412,74,79.6447677612305,98,0,
00:00:08.416,74,79.6447677612305,98,0,
00:00:08.42,74,79.6447677612305,98,0,
00:00:08.424,74,79.2932052612305,98,0,
00:00:08.428,74,79.2932052612305,98,0,
00:00:08.432,74,79.2932052612305,98,0,
00:00:08.436,74,78.8708343505859,98,0,
00:00:08.44,74,78.8708343505859,98,0,
00:00:08.444,74,78.8708343505859,98,0,
00:00:08.448,74,78.3947525024414,98,0,
00:00:08.452,74,78.3947525024414,98,0,
00:00:08.456,74,78.3947525024414,98,0,
00:00:08.46,74,78.3947525024414,98,0,
00:00:08.464,74,77.8698425292969,98,0,
00:00:08.468,74,77.8698425292969,98,0,
00:00:08.472,74,77.8698425292969,98,0,
00:00:08.476,74,77.3180770874023,98,0,
00:00:08.48,74,77.3180770874023,98,0,
00:00:08.484,74,77.3180770874023,98,0,
00:00:08.488,74,76.7589874267578,98,0,
00:00:08.492,74,76.7589874267578,98,0,
00:00:08.496,74,76.7589874267578,98,0,
00:00:08.5,74,76.7589874267578,98,0,
00:00:08.504,74,76.1998901367188,98,0,
00:00:08.508,74,76.1998901367188,98,0,
00:00:08.512,74,76.1998901367188,98,0,
00:00:08.516,74,75.6627731323242,98,0,
00:00:08.52,74,75.6627731323242,98,0,
00:00:08.524,74,75.6627731323242,98,0,
00:00:08.528,74,75.1525115966797,98,0,
00:00:08.532,74,75.1525115966797,98,0,
00:00:08.536,74,75.1525115966797,98,0,
00:00:08.54,74,75.1525115966797,98,0,
00:00:08.544,74,74.6813125610352,98,0,
00:00:08.548,74,74.6813125610352,98,0,
00:00:08.552,74,74.6813125610352,98,0,
00:00:08.556,74,74.2516250610352,98,0,
00:00:08.56,74,74.2516250610352,98,0,
00:00:08.564,74,74.2516250610352,98,0,
00:00:08.568,74,73.8707580566406,98,0,
00:00:08.572,74,73.8707580566406,98,0,
00:00:08.576,74,73.8707580566406,98,0,
00:00:08.58,74,73.8707580566406,98,0,
00:00:08.584,74,73.5338363647461,98,0,
00:00:08.588,74,73.5338363647461,98,0,
00:00:08.592,74,73.5338363647461,98,0,
00:00:08.596,74,73.2506332397461,98,0,
00:00:08.6,74,73.2506332397461,98,0,
00:00:08.604,74,73.2506332397461,98,0,
00:00:08.608,74,73.0235748291016,98,0,
00:00:08.612,74,73.0235748291016,98,0,
00:00:08.616,74,73.0235748291016,98,0,
00:00:08.62,74,73.0235748291016,98,0,
00:00:08.624,74,72.8453521728516,98,0,
00:00:08.628,74,72.8453521728516,98,0,
00:00:08.632,74,72.8453521728516,98,0,
00:00:08.636,74,72.713508605957,98,0,
00:00:08.64,74,72.713508605957,98,0,
00:00:08.644,74,72.713508605957,98,0,
00:00:08.648,74,72.615852355957,98,0,
00:00:08.652,74,72.615852355957,98,0,
00:00:08.656,74,72.615852355957,98,0,
00:00:08.66,74,72.615852355957,98,0,
00:00:08.664,74,72.547492980957,98,0,
00:00:08.668,74,72.547492980957,98,0,
00:00:08.672,74,72.547492980957,98,0,
00:00:08.676,74,72.503547668457,98,0,
00:00:08.68,74,72.503547668457,98,0,
00:00:08.684,74,72.503547668457,98,0,
00:00:08.688,74,72.471809387207,98,0,
00:00:08.692,74,72.471809387207,98,0,
00:00:08.696,74,72.471809387207,98,0,
00:00:08.7,74,72.471809387207,98,0,
00:00:08.704,74,72.452278137207,98,0,
00:00:08.708,74,72.452278137207,98,0,
00:00:08.712,74,72.452278137207,98,0,
00:00:08.716,74,72.444953918457,98,0,
00:00:08.72,74,72.444953918457,98,0,
00:00:08.724,74,72.444953918457,98,0,
00:00:08.728,74,72.435188293457,98,0,
00:00:08.732,74,72.435188293457,98,0,
00:00:08.736,74,72.435188293457,98,0,
00:00:08.74,74,72.435188293457,98,0,
00:00:08.744,74,72.422981262207,98,0,
00:00:08.748,74,72.422981262207,98,0,
00:00:08.752,74,72.422981262207,98,0,
00:00:08.756,74,72.408332824707,98,0,
00:00:08.76,74,72.408332824707,98,0,
00:00:08.764,74,72.408332824707,98,0,
00:00:08.768,74,72.388801574707,98,0,
00:00:08.772,74,72.388801574707,98,0,
00:00:08.776,74,72.388801574707,98,0,
00:00:08.78,74,72.388801574707,98,0,
00:00:08.784,74,72.386360168457,98,0,
00:00:08.788,74,72.386360168457,98,0,
00:00:08.792,74,72.386360168457,98,0,
00:00:08.796,74,72.462043762207,98,0,
00:00:08.8,74,72.462043762207,98,0,
00:00:08.804,74,72.462043762207,98,0,
00:00:08.808,74,72.745246887207,98,0,
00:00:08.812,74,72.745246887207,98,0,
00:00:08.816,74,72.745246887207,98,0,
00:00:08.82,74,72.745246887207,98,0,
00:00:08.824,74,73.3946762084961,98,0,
00:00:08.828,74,73.3946762084961,98,0,
00:00:08.832,74,73.3946762084961,98,0,
00:00:08.836,74,74.5543594360352,98,0,
00:00:08.84,74,74.5543594360352,98,0,
00:00:08.844,74,74.5543594360352,98,0,
00:00:08.848,74,76.2999954223633,98,0,
00:00:08.852,74,76.2999954223633,98,0,
00:00:08.856,74,76.2999954223633,98,0,
00:00:08.86,74,76.2999954223633,98,0,
00:00:08.864,74,78.5827407836914,98,0,
00:00:08.868,74,78.5827407836914,98,0,
00:00:08.872,74,78.5827407836914,98,0,
00:00:08.876,74,81.2463531494141,98,0,
00:00:08.88,74,81.2463531494141,98,0,
00:00:08.884,74,81.2463531494141,98,0,
00:00:08.888,74,84.0466918945313,98,0,
00:00:08.892,74,84.0466918945313,98,0,
00:00:08.896,74,84.0466918945313,98,0,
00:00:08.9,74,84.0466918945313,98,0,
00:00:08.904,74,86.7225112915039,98,0,
00:00:08.908,74,86.7225112915039,98,0,
00:00:08.912,74,86.7225112915039,98,0,
00:00:08.916,74,89.0565338134766,98,0,
00:00:08.92,74,89.0565338134766,98,0,
00:00:08.924,74,89.0565338134766,98,0,
00:00:08.928,74,90.9071502685547,98,0,
00:00:08.932,74,90.9071502685547,98,0,
00:00:08.936,74,90.9071502685547,98,0,
00:00:08.94,74,90.9071502685547,98,0,
00:00:08.944,74,92.2084350585938,98,0,
00:00:08.948,74,92.2084350585938,98,0,
00:00:08.952,74,92.2084350585938,98,0,
00:00:08.956,74,92.9530792236328,98,0,
00:00:08.96,74,92.9530792236328,98,0,
00:00:08.964,74,92.9530792236328,98,0,
00:00:08.968,74,93.1972198486328,98,0,
00:00:08.972,74,93.1972198486328,98,0,
00:00:08.976,74,93.1972198486328,98,0,
00:00:08.98,74,93.1972198486328,98,0,
00:00:08.984,74,93.0312042236328,98,0,
00:00:08.988,74,93.0312042236328,98,0,
00:00:08.992,74,93.0312042236328,98,0,
00:00:08.996,74,92.5551223754883,98,0,
00:00:09,74,92.5551223754883,98,0,
00:00:09.004,74,92.5551223754883,98,0,
00:00:09.008,74,91.8495483398438,98,0,
00:00:09.012,74,91.8495483398438,98,0,
00:00:09.016,74,91.8495483398438,98,0,
00:00:09.02,74,91.8495483398438,98,0,
00:00:09.024,74,90.9706268310547,98,0,
00:00:09.028,74,90.9706268310547,98,0,
00:00:09.032,74,90.9706268310547,98,0,
00:00:09.036,74,89.9452209472656,98,0,
00:00:09.04,74,89.9452209472656,98,0,
00:00:09.044,74,89.9452209472656,98,0,
00:00:09.048,73,88.8050689697266,98,0,
00:00:09.052,73,88.8050689697266,98,0,
00:00:09.056,73,88.8050689697266,98,0,
00:00:09.06,73,88.8050689697266,98,0,
00:00:09.064,73,87.577018737793,98,0,
00:00:09.068,73,87.577018737793,98,0,
00:00:09.072,73,87.577018737793,98,0,
00:00:09.076,73,86.3123550415039,98,0,
00:00:09.08,73,86.3123550415039,98,0,
00:00:09.084,73,86.3123550415039,98,0,
00:00:09.088,73,85.0794219970703,98,0,
00:00:09.092,73,85.0794219970703,98,0,
00:00:09.096,73,85.0794219970703,98,0,
00:00:09.1,73,85.0794219970703,98,0,
00:00:09.104,73,83.9514770507813,98,0,
00:00:09.108,73,83.9514770507813,98,0,
00:00:09.112,73,83.9514770507813,98,0,
00:00:09.116,73,82.9822235107422,98,0,
00:00:09.12,73,82.9822235107422,98,0,
00:00:09.124,73,82.9822235107422,98,0,
00:00:09.128,73,82.2033996582031,98,0,
00:00:09.132,73,82.2033996582031,98,0,
00:00:09.136,73,82.2033996582031,98,0,
00:00:09.14,73,82.2033996582031,98,0,
00:00:09.144,73,81.6247787475586,98,0,
00:00:09.148,73,81.6247787475586,98,0,
00:00:09.152,73,81.6247787475586,98,0,
00:00:09.156,73,81.2365875244141,98,0,
00:00:09.16,73,81.2365875244141,98,0,
00:00:09.164,73,81.2365875244141,98,0,
00:00:09.168,73,80.9924468994141,98,0,
00:00:09.172,73,80.9924468994141,98,0,
00:00:09.176,73,80.9924468994141,98,0,
00:00:09.18,73,80.9924468994141,98,0,
00:00:09.184,73,80.8459625244141,98,0,
00:00:09.188,73,80.8459625244141,98,0,
00:00:09.192,73,80.8459625244141,98,0,
00:00:09.196,73,80.7385330200195,98,0,
00:00:09.2,73,80.7385330200195,98,0,
00:00:09.204,73,80.7385330200195,98,0,
00:00:09.208,73,80.6189041137695,98,0,
00:00:09.212,73,80.6189041137695,98,0,
00:00:09.216,73,80.6189041137695,98,0,
00:00:09.22,73,80.6189041137695,98,0,
00:00:09.224,73,80.4455642700195,98,0,
00:00:09.228,73,80.4455642700195,98,0,
00:00:09.232,73,80.4455642700195,98,0,
00:00:09.236,73,80.194091796875,98,0,
00:00:09.24,73,80.194091796875,98,0,
00:00:09.244,73,80.194091796875,98,0,
00:00:09.248,73,79.862060546875,98,0,
00:00:09.252,73,79.862060546875,98,0,
00:00:09.256,73,79.862060546875,98,0,
00:00:09.26,73,79.862060546875,98,0,
00:00:09.264,73,79.4592208862305,98,0,
00:00:09.268,73,79.4592208862305,98,0,
00:00:09.272,73,79.4592208862305,98,0,
00:00:09.276,73,78.9929046630859,98,0,
00:00:09.28,73,78.9929046630859,98,0,
00:00:09.284,73,78.9929046630859,98,0,
00:00:09.288,73,78.4802017211914,98,0,
00:00:09.292,73,78.4802017211914,98,0,
00:00:09.296,73,78.4802017211914,98,0,
00:00:09.3,73,78.4802017211914,98,0,
00:00:09.304,73,77.9333190917969,98,0,
00:00:09.308,73,77.9333190917969,98,0,
00:00:09.312,73,77.9333190917969,98,0,
00:00:09.316,73,77.3620223999023,98,0,
00:00:09.32,73,77.3620223999023,98,0,
00:00:09.324,73,77.3620223999023,98,0,
00:00:09.328,73,76.7834014892578,98,0,
00:00:09.332,73,76.7834014892578,98,0,
00:00:09.336,73,76.7834014892578,98,0,
00:00:09.34,73,76.7834014892578,98,0,
00:00:09.344,73,76.2096557617188,98,0,
00:00:09.348,73,76.2096557617188,98,0,
00:00:09.352,73,76.2096557617188,98,0,
00:00:09.356,73,75.6603317260742,98,0,
00:00:09.36,73,75.6603317260742,98,0,
00:00:09.364,73,75.6603317260742,98,0,
00:00:09.368,73,75.1451873779297,98,0,
00:00:09.372,73,75.1451873779297,98,0,
00:00:09.376,73,75.1451873779297,98,0,
00:00:09.38,73,75.1451873779297,98,0,
00:00:09.384,73,74.6837539672852,98,0,
00:00:09.388,73,74.6837539672852,98,0,
00:00:09.392,73,74.6837539672852,98,0,
00:00:09.396,73,74.2784805297852,98,0,
00:00:09.4,73,74.2784805297852,98,0,
00:00:09.404,73,74.2784805297852,98,0,
00:00:09.408,73,73.9366760253906,98,0,
00:00:09.412,73,73.9366760253906,98,0,
00:00:09.416,73,73.9366760253906,98,0,
00:00:09.42,73,73.9366760253906,98,0,
00:00:09.424,73,73.6534652709961,98,0,
00:00:09.428,73,73.6534652709961,98,0,
00:00:09.432,73,73.6534652709961,98,0,
00:00:09.436,73,73.4312973022461,98,0,
00:00:09.44,73,73.4312973022461,98,0,
00:00:09.444,73,73.4312973022461,98,0,
00:00:09.448,73,73.2603988647461,98,0,
00:00:09.452,73,73.2603988647461,98,0,
00:00:09.456,73,73.2603988647461,98,0,
00:00:09.46,73,73.2603988647461,98,0,
00:00:09.464,73,73.1285552978516,98,0,
00:00:09.468,73,73.1285552978516,98,0,
00:00:09.472,73,73.1285552978516,98,0,
00:00:09.476,73,73.0235748291016,98,0,
00:00:09.48,73,73.0235748291016,98,0,
00:00:09.484,73,73.0235748291016,98,0,
00:00:09.488,73,72.9381256103516,98,0,
00:00:09.492,73,72.9381256103516,98,0,
00:00:09.496,73,72.9381256103516,98,0,
00:00:09.5,73,72.9381256103516,98,0,
00:00:09.504,73,72.8673248291016,98,0,
00:00:09.508,73,72.8673248291016,98,0,
00:00:09.512,73,72.8673248291016,98,0,
00:00:09.516,73,72.8136138916016,98,0,
00:00:09.52,73,72.8136138916016,98,0,
00:00:09.524,73,72.8136138916016,98,0,
00:00:09.528,73,72.7745513916016,98,0,
00:00:09.532,73,72.7745513916016,98,0,
00:00:09.536,73,72.7745513916016,98,0,
00:00:09.54,73,72.7745513916016,98,0,
00:00:09.544,73,72.7525787353516,98,0,
00:00:09.548,73,72.7525787353516,98,0,
00:00:09.552,73,72.7525787353516,98,0,
00:00:09.556,73,72.745246887207,98,0,
00:00:09.56,73,72.745246887207,98,0,
00:00:09.564,73,72.745246887207,98,0,
00:00:09.568,73,72.7525787353516,98,0,
00:00:09.572,73,72.7525787353516,98,0,
00:00:09.576,73,72.7525787353516,98,0,
00:00:09.58,73,72.7525787353516,98,0,
00:00:09.584,73,72.7647857666016,98,0,
00:00:09.588,73,72.7647857666016,98,0,
00:00:09.592,73,72.7647857666016,98,0,
00:00:09.596,73,72.7696685791016,98,0,
00:00:09.6,73,72.7696685791016,98,0,
00:00:09.604,73,72.7696685791016,98,0,
00:00:09.608,73,72.7721099853516,98,0,
00:00:09.612,73,72.7721099853516,98,0,
00:00:09.616,73,72.7721099853516,98,0,
00:00:09.62,73,72.7721099853516,98,0,
00:00:09.624,73,72.7672271728516,98,0,
00:00:09.628,73,72.7672271728516,98,0,
00:00:09.632,73,72.7672271728516,98,0,
00:00:09.636,73,72.7574615478516,98,0,
00:00:09.64,73,72.7574615478516,98,0,
00:00:09.644,73,72.7574615478516,98,0,
00:00:09.648,73,72.7525787353516,98,0,
00:00:09.652,73,72.7525787353516,98,0,
00:00:09.656,73,72.7525787353516,98,0,
00:00:09.66,73,72.7525787353516,98,0,
00:00:09.664,73,72.7916412353516,98,0,
00:00:09.668,73,72.7916412353516,98,0,
00:00:09.672,73,72.7916412353516,98,0,
00:00:09.676,73,72.9723052978516,98,0,
00:00:09.68,73,72.9723052978516,98,0,
00:00:09.684,73,72.9723052978516,98,0,
00:00:09.688,73,73.4337387084961,98,0,
00:00:09.692,73,73.4337387084961,98,0,
00:00:09.696,73,73.4337387084961,98,0,
00:00:09.7,73,73.4337387084961,98,0,
00:00:09.704,73,74.3346328735352,98,0,
00:00:09.708,73,74.3346328735352,98,0,
00:00:09.712,73,74.3346328735352,98,0,
00:00:09.716,73,75.7824096679688,98,0,
00:00:09.72,73,75.7824096679688,98,0,
00:00:09.724,73,75.7824096679688,98,0,
00:00:09.728,73,77.7868347167969,98,0,
00:00:09.732,73,77.7868347167969,98,0,
00:00:09.736,73,77.7868347167969,98,0,
00:00:09.74,73,77.7868347167969,98,0,
00:00:09.744,73,80.233154296875,98,0,
00:00:09.748,73,80.233154296875,98,0,
00:00:09.752,73,80.233154296875,98,0,
00:00:09.756,73,82.9114227294922,98,0,
00:00:09.76,73,82.9114227294922,98,0,
00:00:09.764,73,82.9114227294922,98,0,
00:00:09.768,73,85.5579452514648,98,0,
00:00:09.772,73,85.5579452514648,98,0,
00:00:09.776,73,85.5579452514648,98,0,
00:00:09.78,73,85.5579452514648,98,0,
00:00:09.784,73,87.9334716796875,98,0,
00:00:09.788,73,87.9334716796875,98,0,
00:00:09.792,73,87.9334716796875,98,0,
00:00:09.796,73,89.8670959472656,98,0,
00:00:09.8,73,89.8670959472656,98,0,
00:00:09.804,73,89.8670959472656,98,0,
00:00:09.808,73,91.2660446166992,98,0,
00:00:09.812,73,91.2660446166992,98,0,
00:00:09.816,73,91.2660446166992,98,0,
00:00:09.82,73,91.2660446166992,98,0,
00:00:09.824,73,92.1010131835938,98,0,
00:00:09.828,73,92.1010131835938,98,0,
00:00:09.832,73,92.1010131835938,98,0,
00:00:09.836,73,92.4086380004883,98,0,
00:00:09.84,73,92.4086380004883,98,0,
00:00:09.844,73,92.4086380004883,98,0,
00:00:09.848,73,92.2694778442383,98,0,
00:00:09.852,73,92.2694778442383,98,0,
00:00:09.856,73,92.2694778442383,98,0,
00:00:09.86,73,92.2694778442383,98,0,
00:00:09.864,73,91.7787475585938,98,0,
00:00:09.868,73,91.7787475585938,98,0,
00:00:09.872,73,91.7787475585938,98,0,
00:00:09.876,73,91.0292205810547,98,0,
00:00:09.88,73,91.0292205810547,98,0,
00:00:09.884,73,91.0292205810547,98,0,
00:00:09.888,73,90.0917053222656,98,0,
00:00:09.892,73,90.0917053222656,98,0,
00:00:09.896,73,90.0917053222656,98,0,
00:00:09.9,73,90.0917053222656,98,0,
00:00:09.904,73,89.0052642822266,98,0,
00:00:09.908,73,89.0052642822266,98,0,
00:00:09.912,73,89.0052642822266,98,0,
00:00:09.916,73,87.8040771484375,98,0,
00:00:09.92,73,87.8040771484375,98,0,
00:00:09.924,73,87.8040771484375,98,0,
00:00:09.928,73,86.5394058227539,98,0,
00:00:09.932,73,86.5394058227539,98,0,
00:00:09.936,73,86.5394058227539,98,0,
00:00:09.94,73,86.5394058227539,98,0,
00:00:09.944,73,85.2698593139648,98,0,
00:00:09.948,73,85.2698593139648,98,0,
00:00:09.952,73,85.2698593139648,98,0,
00:00:09.956,73,84.0686645507813,98,0,
00:00:09.96,73,84.0686645507813,98,0,
00:00:09.964,73,84.0686645507813,98,0,
00:00:09.968,73,83.0090789794922,98,0,
00:00:09.972,73,83.0090789794922,98,0,
00:00:09.976,73,83.0090789794922,98,0,
00:00:09.98,73,83.0090789794922,98,0,
00:00:09.984,73,82.1496887207031,98,0,
00:00:09.988,73,82.1496887207031,98,0,
00:00:09.992,73,82.1496887207031,98,0,
00:00:09.996,73,81.5149154663086,98,0,
00:00:10,73,81.5149154663086,98,0,
00:00:10.004,73,81.5149154663086,98,0,
00:00:10.008,73,81.0949859619141,98,0,
00:00:10.012,73,81.0949859619141,98,0,
00:00:10.016,73,81.0949859619141,98,0,
00:00:10.02,73,81.0949859619141,98,0,
00:00:10.024,73,80.8728179931641,98,0,
00:00:10.028,73,80.8728179931641,98,0,
00:00:10.032,73,80.8728179931641,98,0,
00:00:10.036,73,80.7971343994141,98,0,
00:00:10.04,73,80.7971343994141,98,0,
00:00:10.044,73,80.7971343994141,98,0,
00:00:10.048,73,80.8020172119141,98,0,
00:00:10.052,73,80.8020172119141,98,0,
00:00:10.056,73,80.8020172119141,98,0,
00:00:10.06,73,80.8020172119141,98,0,
00:00:10.064,73,80.8239898681641,98,0,
00:00:10.068,73,80.8239898681641,98,0,
00:00:10.072,73,80.8239898681641,98,0,
00:00:10.076,73,80.8020172119141,98,0,
00:00:10.08,73,80.8020172119141,98,0,
00:00:10.084,73,80.8020172119141,98,0,
00:00:10.088,73,80.6921463012695,98,0,
00:00:10.092,73,80.6921463012695,98,0,
00:00:10.096,73,80.6921463012695,98,0,
00:00:10.1,73,80.6921463012695,98,0,
00:00:10.104,73,80.4748611450195,98,0,
00:00:10.108,73,80.4748611450195,98,0,
00:00:10.112,73,80.4748611450195,98,0,
00:00:10.116,73,80.147705078125,98,0,
00:00:10.12,73,80.147705078125,98,0,
00:00:10.124,73,80.147705078125,98,0,
00:00:10.128,73,79.7204513549805,98,0,
00:00:10.132,73,79.7204513549805,98,0,
00:00:10.136,73,79.7204513549805,98,0,
00:00:10.14,73,79.7204513549805,98,0,
00:00:10.144,73,79.2223968505859,98,0,
00:00:10.148,73,79.2223968505859,98,0,
00:00:10.152,73,79.2223968505859,98,0,
00:00:10.156,73,78.6755142211914,98,0,
00:00:10.16,73,78.6755142211914,98,0,
00:00:10.164,73,78.6755142211914,98,0,
00:00:10.168,73,78.1042175292969,98,0,
00:00:10.172,73,78.1042175292969,98,0,
00:00:10.176,73,78.1042175292969,98,0,
00:00:10.18,73,78.1042175292969,98,0,
00:00:10.184,73,77.5353622436523,98,0,
00:00:10.188,73,77.5353622436523,98,0,
00:00:10.192,73,77.5353622436523,98,0,
00:00:10.196,73,76.9835968017578,98,0,
00:00:10.2,73,76.9835968017578,98,0,
00:00:10.204,73,76.9835968017578,98,0,
00:00:10.208,73,76.4684524536133,98,0,
00:00:10.212,73,76.4684524536133,98,0,
00:00:10.216,73,76.4684524536133,98,0,
00:00:10.22,73,76.4684524536133,98,0,
00:00:10.224,73,75.9874877929688,98,0,
00:00:10.228,73,75.9874877929688,98,0,
00:00:10.232,73,75.9874877929688,98,0,
00:00:10.236,73,75.5504684448242,98,0,
00:00:10.24,73,75.5504684448242,98,0,
00:00:10.244,73,75.5504684448242,98,0,
00:00:10.248,73,75.1549530029297,98,0,
00:00:10.252,73,75.1549530029297,98,0,
00:00:10.256,73,75.1549530029297,98,0,
00:00:10.26,73,75.1549530029297,98,0,
00:00:10.264,73,74.7985076904297,98,0,
00:00:10.268,73,74.7985076904297,98,0,
00:00:10.272,73,74.7985076904297,98,0,
00:00:10.276,73,74.4762344360352,98,0,
00:00:10.28,73,74.4762344360352,98,0,
00:00:10.284,73,74.4762344360352,98,0,
00:00:10.288,73,74.1954650878906,98,0,
00:00:10.292,73,74.1954650878906,98,0,
00:00:10.296,73,74.1954650878906,98,0,
00:00:10.3,73,74.1954650878906,98,0,
00:00:10.304,73,73.9513244628906,98,0,
00:00:10.308,73,73.9513244628906,98,0,
00:00:10.312,73,73.9513244628906,98,0,
00:00:10.316,73,73.7486801147461,98,0,
00:00:10.32,73,73.7486801147461,98,0,
00:00:10.324,73,73.7486801147461,98,0,
00:00:10.328,73,73.5875473022461,98,0,
00:00:10.332,73,73.5875473022461,98,0,
00:00:10.336,73,73.5875473022461,98,0,
00:00:10.34,73,73.5875473022461,98,0,
00:00:10.344,73,73.4654769897461,98,0,
00:00:10.348,73,73.4654769897461,98,0,
00:00:10.352,73,73.4654769897461,98,0,
00:00:10.356,73,73.3751449584961,98,0,
00:00:10.36,73,73.3751449584961,98,0,
00:00:10.364,73,73.3751449584961,98,0,
00:00:10.368,73,73.3141098022461,98,0,
00:00:10.372,73,73.3141098022461,98,0,
00:00:10.376,73,73.3141098022461,98,0,
00:00:10.38,73,73.3141098022461,98,0,
00:00:10.384,73,73.2774887084961,98,0,
00:00:10.388,73,73.2774887084961,98,0,
00:00:10.392,73,73.2774887084961,98,0,
00:00:10.396,73,73.2677230834961,98,0,
00:00:10.4,73,73.2677230834961,98,0,
00:00:10.404,73,73.2677230834961,98,0,
00:00:10.408,73,73.2823715209961,98,0,
00:00:10.412,73,73.2823715209961,98,0,
00:00:10.416,73,73.2823715209961,98,0,
00:00:10.42,73,73.2823715209961,98,0,
00:00:10.424,73,73.3189926147461,98,0,
00:00:10.428,73,73.3189926147461,98,0,
00:00:10.432,73,73.3189926147461,98,0,
00:00:10.436,73,73.3702621459961,98,0,
00:00:10.44,73,73.3702621459961,98,0,
00:00:10.444,73,73.3702621459961,98,0,
00:00:10.448,73,73.4264144897461,98,0,
00:00:10.452,73,73.4264144897461,98,0,
00:00:10.456,73,73.4264144897461,98,0,
00:00:10.46,73,73.4264144897461,98,0,
00:00:10.464,73,73.4728012084961,98,0,
00:00:10.468,73,73.4728012084961,98,0,
00:00:10.472,73,73.4728012084961,98,0,
00:00:10.476,73,73.5069808959961,98,0,
00:00:10.48,73,73.5069808959961,98,0,
00:00:10.484,73,73.5069808959961,98,0,
00:00:10.488,73,73.5191879272461,98,0,
00:00:10.492,73,73.5191879272461,98,0,
00:00:10.496,73,73.5191879272461,98,0,
00:00:10.5,73,73.5191879272461,98,0,
00:00:10.504,73,73.5094223022461,98,0,
00:00:10.508,73,73.5094223022461,98,0,
00:00:10.512,73,73.5094223022461,98,0,
00:00:10.516,73,73.4972152709961,98,0,
00:00:10.52,73,73.4972152709961,98,0,
00:00:10.524,73,73.4972152709961,98,0,
00:00:10.528,73,73.5436019897461,98,0,
00:00:10.532,73,73.5436019897461,98,0,
00:00:10.536,73,73.5436019897461,98,0,
00:00:10.54,73,73.5436019897461,98,0,
00:00:10.544,73,73.7657775878906,98,0,
00:00:10.548,73,73.7657775878906,98,0,
00:00:10.552,73,73.7657775878906,98,0,
00:00:10.556,73,74.3077774047852,98,0,
00:00:10.56,73,74.3077774047852,98,0,
00:00:10.564,73,74.3077774047852,98,0,
00:00:10.568,73,75.3087692260742,98,0,
00:00:10.572,73,75.3087692260742,98,0,
00:00:10.576,73,75.3087692260742,98,0,
00:00:10.58,73,75.3087692260742,98,0,
00:00:10.584,73,76.8273468017578,98,0,
00:00:10.588,73,76.8273468017578,98,0,
00:00:10.592,73,76.8273468017578,98,0,
00:00:10.596,73,78.8146820068359,98,0,
00:00:10.6,73,78.8146820068359,98,0,
00:00:10.604,73,78.8146820068359,98,0,
00:00:10.608,73,81.1120758056641,98,0,
00:00:10.612,73,81.1120758056641,98,0,
00:00:10.616,73,81.1120758056641,98,0,
00:00:10.62,73,81.1120758056641,98,0,
00:00:10.624,73,83.4949264526367,98,0,
00:00:10.628,73,83.4949264526367,98,0,
00:00:10.632,73,83.4949264526367,98,0,
00:00:10.636,73,85.7312850952148,98,0,
00:00:10.64,73,85.7312850952148,98,0,
00:00:10.644,73,85.7312850952148,98,0,
00:00:10.648,73,87.642936706543,98,0,
00:00:10.652,73,87.642936706543,98,0,
00:00:10.656,73,87.642936706543,98,0,
00:00:10.66,73,87.642936706543,98,0,
00:00:10.664,73,89.1200103759766,98,0,
00:00:10.668,73,89.1200103759766,98,0,
00:00:10.672,73,89.1200103759766,98,0,
00:00:10.676,73,90.1136779785156,98,0,
00:00:10.68,73,90.1136779785156,98,0,
00:00:10.684,73,90.1136779785156,98,0,
00:00:10.688,73,90.6312637329102,98,0,
00:00:10.692,73,90.6312637329102,98,0,
00:00:10.696,73,90.6312637329102,98,0,
00:00:10.7,73,90.6312637329102,98,0,
00:00:10.704,73,90.7142715454102,98,0,
00:00:10.708,73,90.7142715454102,98,0,
00:00:10.712,73,90.7142715454102,98,0,
00:00:10.716,73,90.4237442016602,98,0,
00:00:10.72,73,90.4237442016602,98,0,
00:00:10.724,73,90.4237442016602,98,0,
00:00:10.728,73,89.8280334472656,98,0,
00:00:10.732,73,89.8280334472656,98,0,
00:00:10.736,73,89.8280334472656,98,0,
00:00:10.74,73,89.8280334472656,98,0,
00:00:10.744,73,88.9954986572266,98,0,
00:00:10.748,73,88.9954986572266,98,0,
00:00:10.752,73,88.9954986572266,98,0,
00:00:10.756,73,87.9798583984375,98,0,
00:00:10.76,73,87.9798583984375,98,0,
00:00:10.764,73,87.9798583984375,98,0,
00:00:10.768,73,86.8323822021484,98,0,
00:00:10.772,73,86.8323822021484,98,0,
00:00:10.776,73,86.8323822021484,98,0,
00:00:10.78,73,86.8323822021484,98,0,
00:00:10.784,73,85.6189804077148,98,0,
00:00:10.788,73,85.6189804077148,98,0,
00:00:10.792,73,85.6189804077148,98,0,
00:00:10.796,73,84.4129104614258,98,0,
00:00:10.8,73,84.4129104614258,98,0,
00:00:10.804,73,84.4129104614258,98,0,
00:00:10.808,73,83.2922897338867,98,0,
00:00:10.812,73,83.2922897338867,98,0,
00:00:10.816,73,83.2922897338867,98,0,
00:00:10.82,73,83.2922897338867,98,0,
00:00:10.824,73,82.3303604125977,98,0,
00:00:10.828,73,82.3303604125977,98,0,
00:00:10.832,73,82.3303604125977,98,0,
00:00:10.836,73,81.5759506225586,98,0,
00:00:10.84,73,81.5759506225586,98,0,
00:00:10.844,73,81.5759506225586,98,0,
00:00:10.848,73,81.0534820556641,98,0,
00:00:10.852,73,81.0534820556641,98,0,
00:00:10.856,73,81.0534820556641,98,0,
00:00:10.86,73,81.0534820556641,98,0,
00:00:10.864,73,80.7531890869141,98,0,
00:00:10.868,73,80.7531890869141,98,0,
00:00:10.872,73,80.7531890869141,98,0,
00:00:10.876,73,80.6359939575195,98,0,
00:00:10.88,73,80.6359939575195,98,0,
00:00:10.884,73,80.6359939575195,98,0,
00:00:10.888,73,80.6506423950195,98,0,
00:00:10.892,73,80.6506423950195,98,0,
00:00:10.896,73,80.6506423950195,98,0,
00:00:10.9,73,80.6506423950195,98,0,
00:00:10.904,73,80.7360916137695,98,0,
00:00:10.908,73,80.7360916137695,98,0,
00:00:10.912,73,80.7360916137695,98,0,
00:00:10.916,73,80.8386383056641,98,0,
00:00:10.92,73,80.8386383056641,98,0,
00:00:10.924,73,80.8386383056641,98,0,
00:00:10.928,73,80.9021148681641,98,0,
00:00:10.932,73,80.9021148681641,98,0,
00:00:10.936,73,80.9021148681641,98,0,
00:00:10.94,73,80.9021148681641,98,0,
00:00:10.944,73,80.8899078369141,98,0,
00:00:10.948,73,80.8899078369141,98,0,
00:00:10.952,73,80.8899078369141,98,0,
00:00:10.956,73,80.7751617431641,98,0,
00:00:10.96,73,80.7751617431641,98,0,
00:00:10.964,73,80.7751617431641,98,0,
00:00:10.968,73,80.5578689575195,98,0,
00:00:10.972,73,80.5578689575195,98,0,
00:00:10.976,73,80.5578689575195,98,0,
00:00:10.98,73,80.5578689575195,98,0,
00:00:10.984,73,80.242919921875,98,0,
00:00:10.988,73,80.242919921875,98,0,
00:00:10.992,73,80.242919921875,98,0,
00:00:10.996,73,79.844970703125,98,0,
00:00:11,73,79.844970703125,98,0,
00:00:11.004,73,79.844970703125,98,0,
00:00:11.008,73,79.3810958862305,98,0,
00:00:11.012,73,79.3810958862305,98,0,
00:00:11.016,73,79.3810958862305,98,0,
00:00:11.02,73,79.3810958862305,98,0,
00:00:11.024,73,78.8805999755859,98,0,
00:00:11.028,73,78.8805999755859,98,0,
00:00:11.032,73,78.8805999755859,98,0,
00:00:11.036,73,78.3630142211914,98,0,
00:00:11.04,73,78.3630142211914,98,0,
00:00:11.044,73,78.3630142211914,98,0,
00:00:11.048,73,77.8527526855469,98,0,
00:00:11.052,73,77.8527526855469,98,0,
00:00:11.056,73,77.8527526855469,98,0,
00:00:11.06,73,77.8527526855469,98,0,
00:00:11.064,73,77.3669052124023,98,0,
00:00:11.068,73,77.3669052124023,98,0,
00:00:11.072,73,77.3669052124023,98,0,
00:00:11.076,73,76.9176788330078,98,0,
00:00:11.08,73,76.9176788330078,98,0,
00:00:11.084,73,76.9176788330078,98,0,
00:00:11.088,73,76.5172805786133,98,0,
00:00:11.092,73,76.5172805786133,98,0,
00:00:11.096,73,76.5172805786133,98,0,
00:00:11.1,73,76.1608276367188,98,0,
00:00:11.104,73,76.1608276367188,98,0,
00:00:11.108,73,76.1608276367188,98,0,
00:00:11.112,73,76.1608276367188,98,0,
00:00:11.116,73,75.8507690429688,98,0,
00:00:11.12,73,75.8507690429688,98,0,
00:00:11.124,73,75.8507690429688,98,0,
00:00:11.128,73,75.5797653198242,98,0,
00:00:11.132,73,75.5797653198242,98,0,
00:00:11.136,73,75.5797653198242,98,0,
00:00:11.14,73,75.3478317260742,98,0,
00:00:11.144,73,75.3478317260742,98,0,
00:00:11.148,73,75.3478317260742,98,0,
00:00:11.152,73,75.3478317260742,98,0,
00:00:11.156,73,75.1525115966797,98,0,
00:00:11.16,73,75.1525115966797,98,0,
00:00:11.164,73,75.1525115966797,98,0,
00:00:11.168,73,74.9913787841797,98,0,
00:00:11.172,73,74.9913787841797,98,0,
00:00:11.176,73,74.9913787841797,98,0,
00:00:11.18,73,74.8619842529297,98,0,
00:00:11.184,73,74.8619842529297,98,0,
00:00:11.188,73,74.8619842529297,98,0,
00:00:11.192,73,74.8619842529297,98,0,
00:00:11.196,73,74.7570037841797,98,0,
00:00:11.2,73,74.7570037841797,98,0,
00:00:11.204,73,74.7570037841797,98,0,
00:00:11.208,73,74.6739883422852,98,0,
00:00:11.212,73,74.6739883422852,98,0,
00:00:11.216,73,74.6739883422852,98,0,
00:00:11.22,73,74.6105117797852,98,0,
00:00:11.224,73,74.6105117797852,98,0,
00:00:11.228,73,74.6105117797852,98,0,
00:00:11.232,73,74.6105117797852,98,0,
00:00:11.236,73,74.5592422485352,98,0,
00:00:11.24,73,74.5592422485352,98,0,
00:00:11.244,73,74.5592422485352,98,0,
00:00:11.248,73,74.5152969360352,98,0,
00:00:11.252,73,74.5152969360352,98,0,
00:00:11.256,73,74.5152969360352,98,0,
00:00:11.26,73,74.4762344360352,98,0,
00:00:11.264,73,74.4762344360352,98,0,
00:00:11.268,73,74.4762344360352,98,0,
00:00:11.272,73,74.4762344360352,98,0,
00:00:11.276,73,74.4493789672852,98,0,
00:00:11.28,73,74.4493789672852,98,0,
00:00:11.284,73,74.4493789672852,98,0,
00:00:11.288,73,74.4542617797852,98,0,
00:00:11.292,73,74.4542617797852,98,0,
00:00:11.296,73,74.4542617797852,98,0,
00:00:11.3,73,74.4542617797852,98,0,
00:00:11.304,73,74.5543594360352,98,0,
00:00:11.308,73,74.5543594360352,98,0,
00:00:11.312,73,74.5543594360352,98,0,
00:00:11.316,73,74.8668670654297,98,0,
00:00:11.32,73,74.8668670654297,98,0,
00:00:11.324,73,74.8668670654297,98,0,
00:00:11.328,73,75.5431442260742,98,0,
00:00:11.332,73,75.5431442260742,98,0,
00:00:11.336,73,75.5431442260742,98,0,
00:00:11.34,73,76.6906204223633,98,0,
00:00:11.344,73,76.6906204223633,98,0,
00:00:11.348,73,76.6906204223633,98,0,
00:00:11.352,73,76.6906204223633,98,0,
00:00:11.356,73,78.3556900024414,98,0,
00:00:11.36,73,78.3556900024414,98,0,
00:00:11.364,73,78.3556900024414,98,0,
00:00:11.368,73,80.4797439575195,98,0,
00:00:11.372,73,80.4797439575195,98,0,
00:00:11.376,73,80.4797439575195,98,0,
00:00:11.38,73,82.9016571044922,98,0,
00:00:11.384,73,82.9016571044922,98,0,
00:00:11.388,73,82.9016571044922,98,0,
00:00:11.392,73,82.9016571044922,98,0,
00:00:11.396,73,85.3968124389648,98,0,
00:00:11.4,73,85.3968124389648,98,0,
00:00:11.404,73,85.3968124389648,98,0,
00:00:11.408,73,87.745475769043,98,0,
00:00:11.412,73,87.745475769043,98,0,
00:00:11.416,73,87.745475769043,98,0,
00:00:11.42,73,89.7718811035156,98,0,
00:00:11.424,73,89.7718811035156,98,0,
00:00:11.428,73,89.7718811035156,98,0,
00:00:11.432,73,89.7718811035156,98,0,
00:00:11.436,73,91.3685836791992,98,0,
00:00:11.44,73,91.3685836791992,98,0,
00:00:11.444,73,91.3685836791992,98,0,
00:00:11.448,73,92.4843215942383,98,0,
00:00:11.452,73,92.4843215942383,98,0,
00:00:11.456,73,92.4843215942383,98,0,
00:00:11.46,73,93.1215362548828,98,0,
00:00:11.464,73,93.1215362548828,98,0,
00:00:11.468,73,93.1215362548828,98,0,
00:00:11.472,73,93.1215362548828,98,0,
00:00:11.476,73,93.3119735717773,98,0,
00:00:11.48,73,93.3119735717773,98,0,
00:00:11.484,73,93.3119735717773,98,0,
00:00:11.488,73,93.1142120361328,98,0,
00:00:11.492,73,93.1142120361328,98,0,
00:00:11.496,73,93.1142120361328,98,0,
00:00:11.5,73,92.6015090942383,98,0,
00:00:11.504,73,92.6015090942383,98,0,
00:00:11.508,73,92.6015090942383,98,0,
00:00:11.512,73,92.6015090942383,98,0,
00:00:11.516,73,91.8373413085938,98,0,
00:00:11.52,73,91.8373413085938,98,0,
00:00:11.524,73,91.8373413085938,98,0,
00:00:11.528,73,90.8705291748047,98,0,
00:00:11.532,73,90.8705291748047,98,0,
00:00:11.536,73,90.8705291748047,98,0,
00:00:11.54,73,89.7401351928711,98,0,
00:00:11.544,73,89.7401351928711,98,0,
00:00:11.548,73,89.7401351928711,98,0,
00:00:11.552,73,89.7401351928711,98,0,
00:00:11.556,73,88.502326965332,98,0,
00:00:11.56,73,88.502326965332,98,0,
00:00:11.564,73,88.502326965332,98,0,
00:00:11.568,73,87.2083587646484,98,0,
00:00:11.572,73,87.2083587646484,98,0,
00:00:11.576,73,87.2083587646484,98,0,
00:00:11.58,73,87.2083587646484,98,0,
00:00:11.584,73,85.9314880371094,98,0,
00:00:11.588,73,85.9314880371094,98,0,
00:00:11.592,73,85.9314880371094,98,0,
00:00:11.596,73,84.7425003051758,98,0,
00:00:11.6,73,84.7425003051758,98,0,
00:00:11.604,73,84.7425003051758,98,0,
00:00:11.608,73,83.7048873901367,98,0,
00:00:11.612,73,83.7048873901367,98,0,
00:00:11.616,73,83.7048873901367,98,0,
00:00:11.62,73,82.8699188232422,98,0,
00:00:11.624,73,82.8699188232422,98,0,
00:00:11.628,73,82.8699188232422,98,0,
00:00:11.632,73,82.8699188232422,98,0,
00:00:11.636,73,82.2497863769531,98,0,
00:00:11.64,73,82.2497863769531,98,0,
00:00:11.644,73,82.2497863769531,98,0,
00:00:11.648,73,81.8298645019531,98,0,
00:00:11.652,73,81.8298645019531,98,0,
00:00:11.656,73,81.8298645019531,98,0,
00:00:11.66,73,81.5759506225586,98,0,
00:00:11.664,73,81.5759506225586,98,0,
00:00:11.668,73,81.5759506225586,98,0,
00:00:11.672,73,81.5759506225586,98,0,
00:00:11.676,73,81.4416732788086,98,0,
00:00:11.68,73,81.4416732788086,98,0,
00:00:11.684,73,81.4416732788086,98,0,
00:00:11.688,73,81.3757553100586,98,0,
00:00:11.692,73,81.3757553100586,98,0,
00:00:11.696,73,81.3757553100586,98,0,
00:00:11.7,73,81.3171615600586,98,0,
00:00:11.704,73,81.3171615600586,98,0,
00:00:11.708,73,81.3171615600586,98,0,
00:00:11.712,73,81.3171615600586,98,0,
00:00:11.716,74,81.2243804931641,98,0,
00:00:11.72,74,81.2243804931641,98,0,
00:00:11.724,74,81.2243804931641,98,0,
00:00:11.728,74,81.0583648681641,98,0,
00:00:11.732,74,81.0583648681641,98,0,
00:00:11.736,74,81.0583648681641,98,0,
00:00:11.74,74,80.8069000244141,98,0,
00:00:11.744,74,80.8069000244141,98,0,
00:00:11.748,74,80.8069000244141,98,0,
00:00:11.752,74,80.8069000244141,98,0,
00:00:11.756,74,80.4724197387695,98,0,
00:00:11.76,74,80.4724197387695,98,0,
00:00:11.764,74,80.4724197387695,98,0,
00:00:11.768,74,80.059814453125,98,0,
00:00:11.772,74,80.059814453125,98,0,
00:00:11.776,74,80.059814453125,98,0,
00:00:11.78,74,79.5837326049805,98,0,
00:00:11.784,74,79.5837326049805,98,0,
00:00:11.788,74,79.5837326049805,98,0,
00:00:11.792,74,79.5837326049805,98,0,
00:00:11.796,74,79.0612640380859,98,0,
00:00:11.8,74,79.0612640380859,98,0,
00:00:11.804,74,79.0612640380859,98,0,
00:00:11.808,74,78.5094985961914,98,0,
00:00:11.812,74,78.5094985961914,98,0,
00:00:11.816,74,78.5094985961914,98,0,
00:00:11.82,74,77.9455261230469,98,0,
00:00:11.824,74,77.9455261230469,98,0,
00:00:11.828,74,77.9455261230469,98,0,
00:00:11.832,74,77.9455261230469,98,0,
00:00:11.836,74,77.3815536499023,98,0,
00:00:11.84,74,77.3815536499023,98,0,
00:00:11.844,74,77.3815536499023,98,0,
00:00:11.848,74,76.8395538330078,98,0,
00:00:11.852,74,76.8395538330078,98,0,
00:00:11.856,74,76.8395538330078,98,0,
00:00:11.86,74,76.3414993286133,98,0,
00:00:11.864,74,76.3414993286133,98,0,
00:00:11.868,74,76.3414993286133,98,0,
00:00:11.872,74,76.3414993286133,98,0,
00:00:11.876,74,75.8873901367188,98,0,
00:00:11.88,74,75.8873901367188,98,0,
00:00:11.884,74,75.8873901367188,98,0,
00:00:11.888,74,75.4796676635742,98,0,
00:00:11.892,74,75.4796676635742,98,0,
00:00:11.896,74,75.4796676635742,98,0,
00:00:11.9,74,75.1207733154297,98,0,
00:00:11.904,74,75.1207733154297,98,0,
00:00:11.908,74,75.1207733154297,98,0,
00:00:11.912,74,75.1207733154297,98,0,
00:00:11.916,74,74.8033905029297,98,0,
00:00:11.92,74,74.8033905029297,98,0,
00:00:11.924,74,74.8033905029297,98,0,
00:00:11.928,74,74.5201797485352,98,0,
00:00:11.932,74,74.5201797485352,98,0,
00:00:11.936,74,74.5201797485352,98,0,
00:00:11.94,74,74.5201797485352,98,0,
00:00:11.944,74,74.2735977172852,98,0,
00:00:11.948,74,74.2735977172852,98,0,
00:00:11.952,74,74.2735977172852,98,0,
00:00:11.956,74,74.0636291503906,98,0,
00:00:11.96,74,74.0636291503906,98,0,
00:00:11.964,74,74.0636291503906,98,0,
00:00:11.968,74,73.8854064941406,98,0,
00:00:11.972,74,73.8854064941406,98,0,
00:00:11.976,74,73.8854064941406,98,0,
00:00:11.98,74,73.8854064941406,98,0,
00:00:11.984,74,73.7364730834961,98,0,
00:00:11.988,74,73.7364730834961,98,0,
00:00:11.992,74,73.7364730834961,98,0,
00:00:11.996,74,73.6144027709961,98,0,
00:00:12,74,73.6144027709961,98,0,
00:00:12.004,74,73.6144027709961,98,0,
00:00:12.008,74,73.5118637084961,98,0,
00:00:12.012,74,73.5118637084961,98,0,
00:00:12.016,74,73.5118637084961,98,0,
00:00:12.02,74,73.5118637084961,98,0,
00:00:12.024,74,73.4239730834961,98,0,
00:00:12.028,74,73.4239730834961,98,0,
00:00:12.032,74,73.4239730834961,98,0,
00:00:12.036,74,73.3482894897461,98,0,
00:00:12.04,74,73.3482894897461,98,0,
00:00:12.044,74,73.3482894897461,98,0,
00:00:12.048,74,73.2921371459961,98,0,
00:00:12.052,74,73.2921371459961,98,0,
00:00:12.056,74,73.2921371459961,98,0,
00:00:12.06,74,73.2823715209961,98,0,
00:00:12.064,74,73.2823715209961,98,0,
00:00:12.068,74,73.2823715209961,98,0,
00:00:12.072,74,73.2823715209961,98,0,
00:00:12.076,74,73.4117660522461,98,0,
00:00:12.08,74,73.4117660522461,98,0,
00:00:12.084,74,73.4117660522461,98,0,
00:00:12.088,74,73.8316955566406,98,0,
