Elapsed Time,Log,RIP Resp,PPG PulseOx1,Heart Rate PulseOx1,Grip Strength Sensor 1,SpO2 PulseOx1,Pulse d(Trace)/dt,Pulse d2(Trace)/dt2,Pulse Rate (BPM),d(Pulse Rate)/dt (BPMPM),Pulse Interval (ms),Pulse RMSSD (ms),Pulse SDNN (BPM),Pulse P50 (%),Pulse Live Residual
602.27203, ,-0.1875,81.51003,49,519.4665,98,0.05859375,-0.0390625,45.433228,-23.272642,2680,301.9034,7.020233,44.444447,81.51003
602.276, ,-0.1875,81.51003,49,519.2523,98,0.05859375,-0.0390625,45.433228,-23.272642,2680,301.9034,7.020233,44.444447,81.51003
602.28, ,-0.1875,81.51003,49,519.2523,98,0.05859375,-0.0390625,45.433228,-23.272642,2680,301.9034,7.020233,44.444447,81.51003
602.28406, ,-0.1875,81.54665,49,519.2523,98,0.036621094,-0.021972656,45.433228,-23.272642,2680,301.9034,7.020233,44.444447,81.54665
602.288, ,-0.1875,81.54665,49,519.2523,98,0.036621094,-0.021972656,45.433228,-23.272642,2680,301.9034,7.020233,44.444447,81.54665
602.29205, ,-0.1875,81.54665,49,519.4665,98,0.036621094,-0.021972656,45.433228,-23.272642,2680,301.9034,7.020233,44.444447,81.54665
602.296, ,-0.1875,81.58083,49,519.2523,98,0.034179688,-0.0024414063,46.09843,-15.223977,1253.3334,553.1013,6.9544387,44.444447,79.95371
602.30005, ,-0.1875,81.58083,49,519.2523,98,0.034179688,-0.0024414063,46.09843,-15.223977,1253.3334,553.1013,6.9544387,44.444447,79.95371
602.304, ,-0.1875,81.58083,49,519.4665,98,0.034179688,-0.0024414063,46.09843,-15.223977,1253.3334,553.1013,6.9544387,44.444447,79.95371
602.30804, ,-0.1875,81.61013,49,519.4665,98,0.029296875,-0.0048828125,46.09843,-15.223977,1253.3334,553.1013,6.9544387,44.444447,80.28954
602.312, ,-0.1875,81.61013,49,519.4665,98,0.029296875,-0.0048828125,46.09843,-15.223977,1253.3334,553.1013,6.9544387,44.444447,80.28954
602.31604, ,-0.1875,81.61013,49,519.4665,98,0.029296875,-0.0048828125,46.09843,-15.223977,1253.3334,553.1013,6.9544387,44.444447,80.28954
602.32, ,-0.1875,81.636986,49,519.4665,98,0.026855469,-0.0024414063,46.09843,-15.223977,1253.3334,553.1013,6.9544387,44.444447,80.6531
602.32404, ,-0.1875,81.636986,49,519.2523,98,0.026855469,-0.0024414063,46.09843,-15.223977,1253.3334,553.1013,6.9544387,44.444447,80.6531
602.328, ,-0.1875,81.636986,49,519.2523,98,0.026855469,-0.0024414063,46.09843,-15.223977,1253.3334,553.1013,6.9544387,44.444447,80.6531
602.33203, ,-0.1875,81.636986,49,519.4665,98,0.026855469,-0.0024414063,46.09843,-15.223977,1253.3334,553.1013,6.9544387,44.444447,80.6531
602.336, ,-0.1875,81.6614,49,519.4665,98,0.024414063,-0.0024414063,46.09843,-15.223977,1253.3334,553.1013,6.9544387,44.444447,81.01414
602.34, ,-0.1875,81.6614,49,519.2523,98,0.024414063,-0.0024414063,46.09843,-15.223977,1253.3334,553.1013,6.9544387,44.444447,81.01414
602.34406, ,-0.1875,81.6614,49,519.4665,98,0.024414063,-0.0024414063,46.09843,-15.223977,1253.3334,553.1013,6.9544387,44.444447,81.01414
602.348, ,-0.1875,81.685814,49,519.4665,98,0.024414063,0,46.09843,-15.223977,1253.3334,553.1013,6.9544387,44.444447,81.35012
602.35205, ,-0.1875,81.685814,49,519.4665,98,0.024414063,0,46.09843,-15.223977,1253.3334,553.1013,6.9544387,44.444447,81.35012
602.356, ,-0.1875,81.685814,49,519.4665,98,0.024414063,0,46.09843,-15.223977,1253.3334,553.1013,6.9544387,44.444447,81.35012
602.36005, ,-0.1875,81.685814,49,519.4665,98,0.024414063,0,46.09843,-15.223977,1253.3334,553.1013,6.9544387,44.444447,81.35012
602.364, ,-0.1875,81.71755,49,519.2523,98,0.03173828,0.0073242188,46.09843,-15.223977,1253.3334,553.1013,6.9544387,44.444447,81.63984
602.36804, ,-0.1875,81.71755,49,519.2523,98,0.03173828,0.0073242188,46.09843,-15.223977,1253.3334,553.1013,6.9544387,44.444447,81.63984
602.372, ,-0.1875,81.71755,49,519.6806,98,0.03173828,0.0073242188,46.09843,-15.223977,1253.3334,553.1013,6.9544387,44.444447,81.63984
602.37604, ,-0.1875,81.74441,49,519.2523,98,0.026855469,-0.0048828125,46.09843,-15.223977,1253.3334,553.1013,6.9544387,44.444447,81.85129
602.38, ,-0.1875,81.74441,49,519.2523,98,0.026855469,-0.0048828125,46.09843,-15.223977,1253.3334,553.1013,6.9544387,44.444447,81.85129
602.38403, ,-0.1875,81.74441,49,519.2523,98,0.026855469,-0.0048828125,46.09843,-15.223977,1253.3334,553.1013,6.9544387,44.444447,81.85129
602.388, ,-0.1875,81.75662,49,519.4665,98,0.012214661,-0.014633179,46.09843,-15.223977,1253.3334,553.1013,6.9544387,44.444447,81.95971
602.392, ,-0.1875,81.75662,49,519.4665,98,0.012214661,-0.014633179,46.09843,-15.223977,1253.3334,553.1013,6.9544387,44.444447,81.95971
602.39606, ,-0.1875,81.75662,49,519.4665,98,0.012214661,-0.014633179,46.09843,-15.223977,1253.3334,553.1013,6.9544387,44.444447,81.95971
602.4, ,-0.1875,81.7322,49,519.2523,98,-0.024421692,-0.036636353,46.09843,-15.223977,1253.3334,553.1013,6.9544387,44.444447,81.936325
602.40405, ,-0.1875,81.7322,49,519.2523,98,-0.024421692,-0.036636353,46.09843,-15.223977,1253.3334,553.1013,6.9544387,44.444447,81.936325
602.408, ,-0.1875,81.7322,49,519.2523,98,-0.024421692,-0.036636353,46.09843,-15.223977,1253.3334,553.1013,6.9544387,44.444447,81.936325
602.41205, ,-0.1875,81.7322,49,519.4665,98,-0.024421692,-0.036636353,46.09843,-15.223977,1253.3334,553.1013,6.9544387,44.444447,81.936325
602.416, ,-0.1875,81.66384,49,519.4665,98,-0.068359375,-0.043930054,46.09843,-15.223977,1253.3334,553.1013,6.9544387,44.444447,81.800644
602.42004, ,-0.1875,81.66384,49,519.2523,98,-0.068359375,-0.043930054,46.09843,-15.223977,1253.3334,553.1013,6.9544387,44.444447,81.800644
602.424, ,-0.1875,81.66384,49,519.4665,98,-0.068359375,-0.043930054,46.09843,-15.223977,1253.3334,553.1013,6.9544387,44.444447,81.800644
602.42804, ,-0.1875,81.54665,49,519.4665,98,-0.1171875,-0.048828125,46.09843,-15.223977,1253.3334,553.1013,6.9544387,44.444447,81.608574
602.432, ,-0.1875,81.54665,49,519.2523,98,-0.1171875,-0.048828125,46.09843,-15.223977,1253.3334,553.1013,6.9544387,44.444447,81.608574
602.43604, ,-0.1875,81.54665,49,519.4665,98,-0.1171875,-0.048828125,46.09843,-15.223977,1253.3334,553.1013,6.9544387,44.444447,81.608574
602.44, ,-0.1875,81.54665,49,519.2523,98,-0.1171875,-0.048828125,46.09843,-15.223977,1253.3334,553.1013,6.9544387,44.444447,81.608574
602.44403, ,-0.1875,81.38796,49,519.4665,98,-0.1586914,-0.041503906,46.09843,-15.223977,1253.3334,553.1013,6.9544387,44.444447,81.40675
602.44806, ,-0.1875,81.38796,49,519.4665,98,-0.1586914,-0.041503906,46.09843,-15.223977,1253.3334,553.1013,6.9544387,44.444447,81.40675
602.452, ,-0.1875,81.38796,49,519.4665,98,-0.1586914,-0.041503906,46.09843,-15.223977,1253.3334,553.1013,6.9544387,44.444447,81.40675
602.45605, ,-0.1875,81.20729,49,519.4665,98,-0.18067169,-0.021987915,46.09843,-15.223977,1253.3334,553.1013,6.9544387,44.444447,81.21116
602.46, ,-0.1875,81.20729,49,519.4665,98,-0.18067169,-0.021987915,46.09843,-15.223977,1253.3334,553.1013,6.9544387,44.444447,81.21116
602.46405, ,-0.1875,81.20729,49,519.4665,98,-0.18067169,-0.021987915,46.09843,-15.223977,1253.3334,553.1013,6.9544387,44.444447,81.21116
602.468, ,-0.1875,81.03151,49,519.2523,98,-0.17578125,0.0048828125,46.09843,-15.223977,1253.3334,553.1013,6.9544387,44.444447,81.03204
602.47205, ,-0.1875,81.03151,49,519.2523,98,-0.17578125,0.0048828125,46.09843,-15.223977,1253.3334,553.1013,6.9544387,44.444447,81.03204
602.476, ,-0.1875,81.03151,49,519.4665,98,-0.17578125,0.0048828125,46.09843,-15.223977,1253.3334,553.1013,6.9544387,44.444447,81.03204
602.48004, ,-0.1875,80.867935,49,519.2523,98,-0.16357422,0.012207031,46.09843,-15.223977,1253.3334,553.1013,6.9544387,44.444447,80.86799
602.484, ,-0.1875,80.867935,49,519.2523,98,-0.16357422,0.012207031,46.09843,-15.223977,1253.3334,553.1013,6.9544387,44.444447,80.86799
602.48804, ,-0.1875,80.867935,49,519.2523,98,-0.16357422,0.012207031,46.09843,-15.223977,1253.3334,553.1013,6.9544387,44.444447,80.86799
602.492, ,-0.1875,80.867935,49,519.2523,98,-0.16357422,0.012207031,46.09843,-15.223977,1253.3334,553.1013,6.9544387,44.444447,80.86799
602.49603, ,-0.1875,80.73365,49,519.4665,98,-0.13428497,0.029296875,46.09843,-15.223977,1253.3334,553.1013,6.9544387,44.444447,80.73365
602.5, ,-0.1875,80.73365,49,519.2523,98,-0.13428497,0.029296875,46.09843,-15.223977,1253.3334,553.1013,6.9544387,44.444447,80.73365
602.504, ,-0.1875,80.73365,49,519.2523,98,-0.13428497,0.029296875,46.09843,-15.223977,1253.3334,553.1013,6.9544387,44.444447,80.73365
602.50806, ,-0.1875,80.63111,49,519.2523,98,-0.10253906,0.03175354,46.09843,-15.223977,1253.3334,553.1013,6.9544387,44.444447,80.63111
602.512, ,-0.1875,80.63111,49,519.2523,98,-0.10253906,0.03175354,46.09843,-15.223977,1253.3334,553.1013,6.9544387,44.444447,80.63111
602.51605, ,-0.1875,80.63111,49,519.2523,98,-0.10253906,0.03175354,46.09843,-15.223977,1253.3334,553.1013,6.9544387,44.444447,80.63111
602.52, ,-0.1875,80.63111,49,519.2523,98,-0.10253906,0.03175354,46.09843,-15.223977,1253.3334,553.1013,6.9544387,44.444447,80.63111
602.52405, ,-0.1875,80.56031,49,519.2523,98,-0.07080078,0.03173828,46.09843,-15.223977,1253.3334,553.1013,6.9544387,44.444447,80.56031
602.528, ,-0.1875,80.56031,49,519.2523,98,-0.07080078,0.03173828,46.09843,-15.223977,1253.3334,553.1013,6.9544387,44.444447,80.56031
602.53204, ,-0.1875,80.56031,49,519.2523,98,-0.07080078,0.03173828,46.09843,-15.223977,1253.3334,553.1013,6.9544387,44.444447,80.56031
602.536, ,-0.1875,80.51148,49,519.4665,98,-0.048828125,0.021972656,46.09843,-15.223977,1253.3334,553.1013,6.9544387,44.444447,79.45029
602.54004, ,-0.1875,80.51148,49,519.2523,98,-0.048828125,0.021972656,46.09843,-15.223977,1253.3334,553.1013,6.9544387,44.444447,79.45029
602.544, ,-0.1875,80.51148,49,519.2523,98,-0.048828125,0.021972656,46.09843,-15.223977,1253.3334,553.1013,6.9544387,44.444447,79.45029
602.54803, ,-0.1875,80.47486,49,519.4665,98,-0.036621094,0.012207031,46.09843,-15.223977,1253.3334,553.1013,6.9544387,44.444447,79.53127
602.552, ,-0.1875,80.47486,49,519.4665,98,-0.036621094,0.012207031,46.09843,-15.223977,1253.3334,553.1013,6.9544387,44.444447,79.53127
602.556, ,-0.1875,80.47486,49,519.2523,98,-0.036621094,0.012207031,46.09843,-15.223977,1253.3334,553.1013,6.9544387,44.444447,79.53127
602.56006, ,-0.1875,80.44312,49,519.0382,98,-0.03173828,0.0048828125,46.09843,-15.223977,1253.3334,553.1013,6.9544387,44.444447,79.6515
602.564, ,-0.1875,80.44312,49,519.4665,98,-0.03173828,0.0048828125,46.09843,-15.223977,1253.3334,553.1013,6.9544387,44.444447,79.6515
602.56805, ,-0.1875,80.44312,49,519.2523,98,-0.03173828,0.0048828125,46.09843,-15.223977,1253.3334,553.1013,6.9544387,44.444447,79.6515
602.572, ,-0.1875,80.44312,49,519.4665,98,-0.03173828,0.0048828125,46.09843,-15.223977,1253.3334,553.1013,6.9544387,44.444447,79.6515
602.57605, ,-0.1875,80.40162,48,519.4665,98,-0.041503906,-0.009765625,46.09843,-15.223977,1253.3334,553.1013,6.9544387,44.444447,79.78352
602.58, ,-0.1875,80.40162,48,519.2523,98,-0.041503906,-0.009765625,46.09843,-15.223977,1253.3334,553.1013,6.9544387,44.444447,79.78352
602.58405, ,-0.1875,80.40162,48,519.2523,98,-0.041503906,-0.009765625,46.09843,-15.223977,1253.3334,553.1013,6.9544387,44.444447,79.78352
602.588, ,-0.1875,80.35035,48,519.4665,98,-0.05126953,-0.009765625,46.09843,-15.223977,1253.3334,553.1013,6.9544387,44.444447,79.9148
602.59204, ,-0.1875,80.35035,48,519.4665,98,-0.05126953,-0.009765625,46.09843,-15.223977,1253.3334,553.1013,6.9544387,44.444447,79.9148
602.596, ,-0.1875,80.35035,48,519.4665,98,-0.05126953,-0.009765625,46.09843,-15.223977,1253.3334,553.1013,6.9544387,44.444447,79.9148
602.60004, ,-0.1875,80.28687,48,519.4665,98,-0.06347656,-0.012207031,46.09843,-15.223977,1253.3334,553.1013,6.9544387,44.444447,80.02625
602.604, ,-0.1875,80.28687,48,519.4665,98,-0.06347656,-0.012207031,46.09843,-15.223977,1253.3334,553.1013,6.9544387,44.444447,80.02625
602.60803, ,-0.1875,80.28687,48,519.4665,98,-0.06347656,-0.012207031,46.09843,-15.223977,1253.3334,553.1013,6.9544387,44.444447,80.02625
602.612, ,-0.1875,80.28687,48,519.2523,98,-0.06347656,-0.012207031,46.09843,-15.223977,1253.3334,553.1013,6.9544387,44.444447,80.02625
602.616, ,-0.1875,80.216064,48,519.2523,98,-0.07080841,-0.0073394775,46.09843,-15.223977,1253.3334,553.1013,6.9544387,44.444447,80.109795
602.62006, ,-0.1875,80.216064,48,519.2523,98,-0.07080841,-0.0073394775,46.09843,-15.223977,1253.3334,553.1013,6.9544387,44.444447,80.109795
602.624, ,-0.1875,80.216064,48,519.2523,98,-0.07080841,-0.0073394775,46.09843,-15.223977,1253.3334,553.1013,6.9544387,44.444447,80.109795
602.62805, ,-0.1875,80.14526,48,519.2523,98,-0.07080078,0,46.09843,-15.223977,1253.3334,553.1013,6.9544387,44.444447,80.158646
602.632, ,-0.1875,80.14526,48,519.4665,98,-0.07080078,0,46.09843,-15.223977,1253.3334,553.1013,6.9544387,44.444447,80.158646
602.63605, ,-0.1875,80.14526,48,519.4665,98,-0.07080078,0,46.09843,-15.223977,1253.3334,553.1013,6.9544387,44.444447,80.158646
602.64, ,-0.1875,80.08179,48,519.4665,98,-0.06347656,0.0073242188,46.09843,-15.223977,1253.3334,553.1013,6.9544387,44.444447,80.17125
602.64404, ,-0.1875,80.08179,48,519.2523,98,-0.06347656,0.0073242188,46.09843,-15.223977,1253.3334,553.1013,6.9544387,44.444447,80.17125
602.648, ,-0.1875,80.08179,48,519.2523,98,-0.06347656,0.0073242188,46.09843,-15.223977,1253.3334,553.1013,6.9544387,44.444447,80.17125
602.65204, ,-0.1875,80.08179,48,519.4665,98,-0.06347656,0.0073242188,46.09843,-15.223977,1253.3334,553.1013,6.9544387,44.444447,80.17125
602.656, ,-0.1875,80.02319,48,519.2523,98,-0.05859375,0.0048828125,46.09843,-15.223977,1253.3334,553.1013,6.9544387,44.444447,80.13818
602.66003, ,-0.1875,80.02319,48,519.2523,98,-0.05859375,0.0048828125,46.09843,-15.223977,1253.3334,553.1013,6.9544387,44.444447,80.13818
602.664, ,-0.1875,80.02319,48,519.2523,98,-0.05859375,0.0048828125,46.09843,-15.223977,1253.3334,553.1013,6.9544387,44.444447,80.13818
602.668, ,-0.1875,79.971924,48,519.4665,98,-0.05126953,0.0073242188,46.09843,-15.223977,1253.3334,553.1013,6.9544387,44.444447,79.533035
602.67206, ,-0.1875,79.971924,48,519.2523,98,-0.05126953,0.0073242188,46.09843,-15.223977,1253.3334,553.1013,6.9544387,44.444447,79.533035
602.676, ,-0.1875,79.971924,48,519.4665,98,-0.05126953,0.0073242188,46.09843,-15.223977,1253.3334,553.1013,6.9544387,44.444447,79.533035
602.68005, ,-0.1875,79.920654,48,519.4665,98,-0.05126953,0,46.09843,-15.223977,1253.3334,553.1013,6.9544387,44.444447,79.594345
602.684, ,-0.1875,79.920654,48,519.2523,98,-0.05126953,0,46.09843,-15.223977,1253.3334,553.1013,6.9544387,44.444447,79.594345
602.68805, ,-0.1875,79.920654,48,519.4665,98,-0.05126953,0,46.09843,-15.223977,1253.3334,553.1013,6.9544387,44.444447,79.594345
602.692, ,-0.1875,79.920654,48,519.2523,98,-0.05126953,0,46.09843,-15.223977,1253.3334,553.1013,6.9544387,44.444447,79.594345
602.69604, ,-0.1875,79.87427,48,519.4665,98,-0.04638672,0.0048828125,46.09843,-15.223977,1253.3334,553.1013,6.9544387,44.444447,79.650314
602.7, ,-0.1875,79.87427,48,519.4665,98,-0.04638672,0.0048828125,46.09843,-15.223977,1253.3334,553.1013,6.9544387,44.444447,79.650314
602.70404, ,-0.1875,79.87427,48,519.2523,98,-0.04638672,0.0048828125,46.09843,-15.223977,1253.3334,553.1013,6.9544387,44.444447,79.650314
602.708, ,-0.1875,79.83032,48,519.2523,98,-0.043945313,0.0024414063,46.09843,-15.223977,1253.3334,553.1013,6.9544387,44.444447,79.69372
602.71204, ,-0.1875,79.83032,48,519.4665,98,-0.043945313,0.0024414063,46.09843,-15.223977,1253.3334,553.1013,6.9544387,44.444447,79.69372
602.716, ,-0.1875,79.83032,48,519.4665,98,-0.043945313,0.0024414063,46.09843,-15.223977,1253.3334,553.1013,6.9544387,44.444447,79.69372
602.72003, ,-0.1875,79.79126,48,519.2523,98,-0.0390625,0.0048828125,46.09843,-15.223977,1253.3334,553.1013,6.9544387,44.444447,79.71739
602.724, ,-0.1875,79.79126,48,519.2523,98,-0.0390625,0.0048828125,46.09843,-15.223977,1253.3334,553.1013,6.9544387,44.444447,79.71739
602.728, ,-0.1875,79.79126,48,519.4665,98,-0.0390625,0.0048828125,46.09843,-15.223977,1253.3334,553.1013,6.9544387,44.444447,79.71739
602.73206, ,-0.1875,79.79126,48,519.2523,98,-0.0390625,0.0048828125,46.09843,-15.223977,1253.3334,553.1013,6.9544387,44.444447,79.71739
602.736, ,-0.1875,79.75952,48,519.2523,98,-0.03173828,0.0073242188,46.09843,-15.223977,1253.3334,553.1013,6.9544387,44.444447,79.72399
602.74005, ,-0.1875,79.75952,48,519.2523,98,-0.03173828,0.0073242188,46.09843,-15.223977,1253.3334,553.1013,6.9544387,44.444447,79.72399
602.744, ,-0.1875,79.75952,48,519.4665,98,-0.03173828,0.0073242188,46.09843,-15.223977,1253.3334,553.1013,6.9544387,44.444447,79.72399
602.74805, ,-0.1875,79.73754,48,519.4665,98,-0.021980286,0.009765625,46.09843,-15.223977,1253.3334,553.1013,6.9544387,44.444447,79.7221
602.752, ,-0.1875,79.73754,48,519.4665,98,-0.021980286,0.009765625,46.09843,-15.223977,1253.3334,553.1013,6.9544387,44.444447,79.7221
602.75604, ,-0.1875,79.73754,48,519.4665,98,-0.021980286,0.009765625,46.09843,-15.223977,1253.3334,553.1013,6.9544387,44.444447,79.7221
602.76, ,-0.1875,79.72045,48,519.4665,98,-0.017089844,0.0048980713,46.09843,-15.223977,1253.3334,553.1013,6.9544387,44.444447,79.71441
602.76404, ,-0.1875,79.72045,48,519.4665,98,-0.017089844,0.0048980713,46.09843,-15.223977,1253.3334,553.1013,6.9544387,44.444447,79.71441
602.768, ,-0.1875,79.72045,48,519.2523,98,-0.017089844,0.0048980713,46.09843,-15.223977,1253.3334,553.1013,6.9544387,44.444447,79.71441
602.77203, ,-0.1875,79.72045,48,519.2523,98,-0.017089844,0.0048980713,46.09843,-15.223977,1253.3334,553.1013,6.9544387,44.444447,79.71441
602.776, ,-0.1875,79.71313,48,519.2523,98,-0.0073242188,0.009765625,46.09843,-15.223977,1253.3334,553.1013,6.9544387,44.444447,79.710976
602.78, ,-0.1875,79.71313,48,519.2523,98,-0.0073242188,0.009765625,46.09843,-15.223977,1253.3334,553.1013,6.9544387,44.444447,79.710976
602.78406, ,-0.1875,79.71313,48,519.2523,98,-0.0073242188,0.009765625,46.09843,-15.223977,1253.3334,553.1013,6.9544387,44.444447,79.710976
602.788, ,-0.1875,79.708244,48,519.4665,98,-0.0048828125,0.0024414063,46.09843,-15.223977,1253.3334,553.1013,6.9544387,44.444447,79.70755
602.79205, ,-0.1875,79.708244,48,519.4665,98,-0.0048828125,0.0024414063,46.09843,-15.223977,1253.3334,553.1013,6.9544387,44.444447,79.70755
602.796, ,-0.1875,79.708244,48,519.4665,98,-0.0048828125,0.0024414063,46.09843,-15.223977,1253.3334,553.1013,6.9544387,44.444447,79.70755
602.80005, ,-0.1875,79.708244,48,519.2523,98,-0.0048828125,0.0024414063,46.09843,-15.223977,1253.3334,553.1013,6.9544387,44.444447,79.70755
602.804, ,-0.1875,79.70092,48,519.2523,98,-0.0073242188,-0.0024414063,46.09843,-15.223977,1253.3334,553.1013,6.9544387,44.444447,79.70072
602.80804, ,-0.1875,79.70092,48,519.4665,98,-0.0073242188,-0.0024414063,46.09843,-15.223977,1253.3334,553.1013,6.9544387,44.444447,79.70072
602.812, ,-0.1875,79.70092,48,519.4665,98,-0.0073242188,-0.0024414063,46.09843,-15.223977,1253.3334,553.1013,6.9544387,44.444447,79.70072
602.81604, ,-0.1875,79.68871,48,519.2523,98,-0.012207031,-0.0048828125,46.09843,-15.223977,1253.3334,553.1013,6.9544387,44.444447,79.68866
602.82, ,-0.1875,79.68871,48,519.4665,98,-0.012207031,-0.0048828125,46.09843,-15.223977,1253.3334,553.1013,6.9544387,44.444447,79.68866
602.82404, ,-0.1875,79.68871,48,519.4665,98,-0.012207031,-0.0048828125,46.09843,-15.223977,1253.3334,553.1013,6.9544387,44.444447,79.68866
602.828, ,-0.1875,79.66918,48,519.4665,98,-0.01953125,-0.0073242188,46.09843,-15.223977,1253.3334,553.1013,6.9544387,44.444447,79.66917
602.83203, ,-0.1875,79.66918,48,519.4665,98,-0.01953125,-0.0073242188,46.09843,-15.223977,1253.3334,553.1013,6.9544387,44.444447,79.66917
602.836, ,-0.1875,79.66918,48,519.4665,98,-0.01953125,-0.0073242188,46.09843,-15.223977,1253.3334,553.1013,6.9544387,44.444447,79.66917
602.84, ,-0.1875,79.66918,48,519.4665,98,-0.01953125,-0.0073242188,46.09843,-15.223977,1253.3334,553.1013,6.9544387,44.444447,79.66917
602.84406, ,-0.1875,79.63744,48,519.4665,98,-0.03173828,-0.012207031,46.09843,-15.223977,1253.3334,553.1013,6.9544387,44.444447,79.63744
602.848, ,-0.1875,79.63744,48,519.2523,98,-0.03173828,-0.012207031,46.09843,-15.223977,1253.3334,553.1013,6.9544387,44.444447,79.63744
602.85205, ,-0.1875,79.63744,48,519.4665,98,-0.03173828,-0.012207031,46.09843,-15.223977,1253.3334,553.1013,6.9544387,44.444447,79.63744
602.856, ,-0.1875,79.59838,48,519.2523,98,-0.0390625,-0.0073242188,46.09843,-15.223977,1253.3334,553.1013,6.9544387,44.444447,79.59838
602.86005, ,-0.1875,79.59838,48,519.2523,98,-0.0390625,-0.0073242188,46.09843,-15.223977,1253.3334,553.1013,6.9544387,44.444447,79.59838
602.864, ,-0.1875,79.59838,48,519.2523,98,-0.0390625,-0.0073242188,46.09843,-15.223977,1253.3334,553.1013,6.9544387,44.444447,79.59838
602.86804, ,-0.1875,79.554436,48,519.2523,98,-0.043945313,-0.0048828125,46.09843,-15.223977,1253.3334,553.1013,6.9544387,44.444447,79.554436
602.872, ,-0.1875,79.554436,48,519.2523,98,-0.043945313,-0.0048828125,46.09843,-15.223977,1253.3334,553.1013,6.9544387,44.444447,79.554436
602.87604, ,-0.1875,79.554436,48,519.4665,98,-0.043945313,-0.0048828125,46.09843,-15.223977,1253.3334,553.1013,6.9544387,44.444447,79.554436
602.88, ,-0.1875,79.554436,48,519.4665,98,-0.043945313,-0.0048828125,46.09843,-15.223977,1253.3334,553.1013,6.9544387,44.444447,79.554436
602.88403, ,-0.1875,79.51293,48,519.4665,98,-0.041503906,0.0024414063,46.09843,-15.223977,1253.3334,553.1013,6.9544387,44.444447,79.51293
602.888, ,-0.1875,79.51293,48,519.4665,98,-0.041503906,0.0024414063,46.09843,-15.223977,1253.3334,553.1013,6.9544387,44.444447,79.51293
602.892, ,-0.1875,79.51293,48,519.4665,98,-0.041503906,0.0024414063,46.09843,-15.223977,1253.3334,553.1013,6.9544387,44.444447,79.51293
602.89606, ,-0.1875,79.47143,48,519.4665,98,-0.041503906,0,46.09843,-15.223977,1253.3334,553.1013,6.9544387,44.444447,79.47143
602.9, ,-0.1875,79.47143,48,519.2523,98,-0.041503906,0,46.09843,-15.223977,1253.3334,553.1013,6.9544387,44.444447,79.47143
602.90405, ,-0.1875,79.47143,48,519.2523,98,-0.041503906,0,46.09843,-15.223977,1253.3334,553.1013,6.9544387,44.444447,79.47143
602.908, ,-0.1875,79.432365,48,519.4665,98,-0.0390625,0.0024414063,46.09843,-15.223977,1253.3334,553.1013,6.9544387,44.444447,79.432365
602.91205, ,-0.1875,79.432365,48,519.4665,98,-0.0390625,0.0024414063,46.09843,-15.223977,1253.3334,553.1013,6.9544387,44.444447,79.432365
602.916, ,-0.1875,79.432365,48,519.4665,98,-0.0390625,0.0024414063,46.09843,-15.223977,1253.3334,553.1013,6.9544387,44.444447,79.432365
602.92004, ,-0.1875,79.38842,48,519.2523,98,-0.043945313,-0.0048828125,46.09843,-15.223977,1253.3334,553.1013,6.9544387,44.444447,79.38842
602.924, ,-0.1875,79.38842,48,519.4665,98,-0.043945313,-0.0048828125,46.09843,-15.223977,1253.3334,553.1013,6.9544387,44.444447,79.38842
602.92804, ,-0.1875,79.38842,48,519.4665,98,-0.043945313,-0.0048828125,46.09843,-15.223977,1253.3334,553.1013,6.9544387,44.444447,79.38842
602.932, ,-0.1875,79.38842,48,519.2523,98,-0.043945313,-0.0048828125,46.09843,-15.223977,1253.3334,553.1013,6.9544387,44.444447,79.38842
602.93604, ,-0.1875,79.34203,48,519.4665,98,-0.04638672,-0.0024414063,46.09843,-15.223977,1253.3334,553.1013,6.9544387,44.444447,79.34203
602.94, ,-0.1875,79.34203,48,519.4665,98,-0.04638672,-0.0024414063,46.09843,-15.223977,1253.3334,553.1013,6.9544387,44.444447,79.34203
602.94403, ,-0.1875,79.34203,48,519.2523,98,-0.04638672,-0.0024414063,46.09843,-15.223977,1253.3334,553.1013,6.9544387,44.444447,79.34203
602.94806, ,-0.1875,79.29565,48,519.4665,98,-0.04638672,0,46.09843,-15.223977,1253.3334,553.1013,6.9544387,44.444447,79.29565
602.952, ,-0.1875,79.29565,48,519.2523,98,-0.04638672,0,46.09843,-15.223977,1253.3334,553.1013,6.9544387,44.444447,79.29565
602.95605, ,-0.1875,79.29565,48,519.2523,98,-0.04638672,0,46.09843,-15.223977,1253.3334,553.1013,6.9544387,44.444447,79.29565
602.96, ,-0.1875,79.256584,48,519.2523,98,-0.0390625,0.0073242188,46.09843,-15.223977,1253.3334,553.1013,6.9544387,44.444447,79.256584
602.96405, ,-0.1875,79.256584,48,519.4665,98,-0.0390625,0.0073242188,46.09843,-15.223977,1253.3334,553.1013,6.9544387,44.444447,79.256584
602.968, ,-0.1875,79.256584,48,519.2523,98,-0.0390625,0.0073242188,46.09843,-15.223977,1253.3334,553.1013,6.9544387,44.444447,79.256584
602.97205, ,-0.1875,79.256584,48,519.4665,98,-0.0390625,0.0073242188,46.09843,-15.223977,1253.3334,553.1013,6.9544387,44.444447,79.256584
602.976, ,-0.1875,79.22972,48,519.2523,98,-0.026863098,0.012191772,46.09843,-15.223977,1253.3334,553.1013,6.9544387,44.444447,79.22972
602.98004, ,-0.1875,79.22972,48,519.4665,98,-0.026863098,0.012191772,46.09843,-15.223977,1253.3334,553.1013,6.9544387,44.444447,79.22972
602.984, ,-0.1875,79.22972,48,519.4665,98,-0.026863098,0.012191772,46.09843,-15.223977,1253.3334,553.1013,6.9544387,44.444447,79.22972
602.98804, ,-0.1875,79.21263,48,519.2523,98,-0.017089844,0.009765625,46.09843,-15.223977,1253.3334,553.1013,6.9544387,44.444447,79.21263
602.992, ,-0.1875,79.21263,48,519.4665,98,-0.017089844,0.009765625,46.09843,-15.223977,1253.3334,553.1013,6.9544387,44.444447,79.21263
602.99603, ,-0.1875,79.21263,48,519.2523,98,-0.017089844,0.009765625,46.09843,-15.223977,1253.3334,553.1013,6.9544387,44.444447,79.21263
603, ,-0.1875,79.202866,48,519.2523,98,-0.009765625,0.0073242188,46.09843,-15.223977,1253.3334,553.1013,6.9544387,44.444447,79.202866
603.004, ,-0.1875,79.202866,48,519.2523,98,-0.009765625,0.0073242188,46.09843,-15.223977,1253.3334,553.1013,6.9544387,44.444447,79.202866
603.00806, ,-0.1875,79.202866,48,519.2523,98,-0.009765625,0.0073242188,46.09843,-15.223977,1253.3334,553.1013,6.9544387,44.444447,79.202866
603.012, ,-0.1875,79.202866,48,519.4665,98,-0.009765625,0.0073242188,46.09843,-15.223977,1253.3334,553.1013,6.9544387,44.444447,79.202866
603.01605, ,-0.1875,79.19798,48,519.2523,98,-0.0048828125,0.0048828125,46.09843,-15.223977,1253.3334,553.1013,6.9544387,44.444447,79.19798
603.02, ,-0.1875,79.19798,48,519.2523,98,-0.0048828125,0.0048828125,46.09843,-15.223977,1253.3334,553.1013,6.9544387,44.444447,79.19798
603.02405, ,-0.1875,79.19798,48,519.2523,98,-0.0048828125,0.0048828125,46.09843,-15.223977,1253.3334,553.1013,6.9544387,44.444447,79.19798
603.028, ,-0.1875,79.19798,48,519.4665,98,-0.0048828125,0.0048828125,46.09843,-15.223977,1253.3334,553.1013,6.9544387,44.444447,79.19798
603.03204, ,-0.1875,79.19798,48,519.4665,98,0,0.0048828125,46.09843,-15.223977,1253.3334,553.1013,6.9544387,44.444447,79.19798
603.036, ,-0.1875,79.19798,48,519.2523,98,0,0.0048828125,46.09843,-15.223977,1253.3334,553.1013,6.9544387,44.444447,79.19798
603.04004, ,-0.1875,79.202866,48,519.4665,98,0,0.0048828125,46.09843,-15.223977,1253.3334,553.1013,6.9544387,44.444447,79.19798
603.044, ,-0.1875,79.202866,48,519.2523,98,0.0048828125,0.0048828125,46.09843,-15.223977,1253.3334,553.1013,6.9544387,44.444447,79.202866
603.04803, ,-0.1875,79.202866,48,519.2523,98,0.0048828125,0.0048828125,46.09843,-15.223977,1253.3334,553.1013,6.9544387,44.444447,79.202866
603.052, ,-0.1875,79.202866,48,519.4665,98,0.0048828125,0.0048828125,46.09843,-15.223977,1253.3334,553.1013,6.9544387,44.444447,79.202866
603.056, ,-0.1875,79.217514,48,519.4665,98,0.0146484375,0.009765625,46.09843,-15.223977,1253.3334,553.1013,6.9544387,44.444447,79.217514
603.06006, ,-0.1875,79.217514,48,519.4665,98,0.0146484375,0.009765625,46.09843,-15.223977,1253.3334,553.1013,6.9544387,44.444447,79.217514
603.064, ,-0.1875,79.217514,48,519.2523,98,0.0146484375,0.009765625,46.09843,-15.223977,1253.3334,553.1013,6.9544387,44.444447,79.217514
603.06805, ,-0.1875,79.24193,48,519.2523,98,0.024414063,0.009765625,46.09843,-15.223977,1253.3334,553.1013,6.9544387,44.444447,79.24193
603.072, ,-0.1875,79.24193,48,519.2523,98,0.024414063,0.009765625,46.09843,-15.223977,1253.3334,553.1013,6.9544387,44.444447,79.24193
603.07605, ,-0.1875,79.24193,48,519.4665,98,0.024414063,0.009765625,46.09843,-15.223977,1253.3334,553.1013,6.9544387,44.444447,79.24193
603.08, ,-0.1875,79.276115,48,519.4665,98,0.034187317,0.009765625,46.09843,-15.223977,1253.3334,553.1013,6.9544387,44.444447,79.276115
603.08405, ,-0.1875,79.276115,48,519.4665,98,0.034187317,0.009765625,46.09843,-15.223977,1253.3334,553.1013,6.9544387,44.444447,79.276115
603.088, ,-0.1875,79.276115,48,519.2523,98,0.034187317,0.009765625,46.09843,-15.223977,1253.3334,553.1013,6.9544387,44.444447,79.276115
603.09204, ,-0.1875,79.276115,48,519.2523,98,0.034187317,0.009765625,46.09843,-15.223977,1253.3334,553.1013,6.9544387,44.444447,79.276115
603.096, ,-0.1875,79.31518,48,519.2523,98,0.0390625,0.0048675537,46.09843,-15.223977,1253.3334,553.1013,6.9544387,44.444447,79.31518
603.10004, ,-0.1875,79.31518,48,519.2523,98,0.0390625,0.0048675537,46.09843,-15.223977,1253.3334,553.1013,6.9544387,44.444447,79.31518
603.104, ,-0.1875,79.31518,48,519.4665,98,0.0390625,0.0048675537,46.09843,-15.223977,1253.3334,553.1013,6.9544387,44.444447,79.31518
603.10803, ,-0.1875,79.34936,48,519.2523,98,0.034179688,-0.0048828125,46.09843,-15.223977,1253.3334,553.1013,6.9544387,44.444447,79.34936
603.112, ,-0.1875,79.34936,48,519.2523,98,0.034179688,-0.0048828125,46.09843,-15.223977,1253.3334,553.1013,6.9544387,44.444447,79.34936
603.116, ,-0.1875,79.34936,48,519.2523,98,0.034179688,-0.0048828125,46.09843,-15.223977,1253.3334,553.1013,6.9544387,44.444447,79.34936
603.12006, ,-0.1875,79.38354,48,519.4665,98,0.034179688,0,46.09843,-15.223977,1253.3334,553.1013,6.9544387,44.444447,79.38354
603.124, ,-0.1875,79.38354,48,519.2523,98,0.034179688,0,46.09843,-15.223977,1253.3334,553.1013,6.9544387,44.444447,79.38354
603.12805, ,-0.1875,79.38354,48,519.2523,98,0.034179688,0,46.09843,-15.223977,1253.3334,553.1013,6.9544387,44.444447,79.38354
603.132, ,-0.1875,79.38354,48,519.4665,98,0.034179688,0,46.09843,-15.223977,1253.3334,553.1013,6.9544387,44.444447,79.38354
603.13605, ,-0.1875,79.40551,48,519.4665,98,0.021972656,-0.012207031,46.09843,-15.223977,1253.3334,553.1013,6.9544387,44.444447,79.40551
603.14, ,-0.1875,79.40551,48,519.4665,98,0.021972656,-0.012207031,46.09843,-15.223977,1253.3334,553.1013,6.9544387,44.444447,79.40551
603.14404, ,-0.1875,79.40551,48,519.4665,98,0.021972656,-0.012207031,46.09843,-15.223977,1253.3334,553.1013,6.9544387,44.444447,79.40551
603.148, ,-0.1875,79.415276,48,519.4665,98,0.009765625,-0.012207031,46.09843,-15.223977,1253.3334,553.1013,6.9544387,44.444447,79.415276
603.15204, ,-0.1875,79.415276,48,519.4665,98,0.009765625,-0.012207031,46.09843,-15.223977,1253.3334,553.1013,6.9544387,44.444447,79.415276
603.156, ,-0.1875,79.415276,48,519.2523,98,0.009765625,-0.012207031,46.09843,-15.223977,1253.3334,553.1013,6.9544387,44.444447,79.415276
603.16003, ,-0.1875,79.415276,48,519.4665,98,0.009765625,-0.012207031,46.09843,-15.223977,1253.3334,553.1013,6.9544387,44.444447,79.415276
603.164, ,-0.1875,79.4226,48,519.2523,98,0.0073242188,-0.0024414063,46.09843,-15.223977,1253.3334,553.1013,6.9544387,44.444447,79.4226
603.168, ,-0.1875,79.4226,48,519.2523,98,0.0073242188,-0.0024414063,46.09843,-15.223977,1253.3334,553.1013,6.9544387,44.444447,79.4226
603.17206, ,-0.1875,79.4226,48,519.4665,98,0.0073242188,-0.0024414063,46.09843,-15.223977,1253.3334,553.1013,6.9544387,44.444447,79.4226
603.176, ,-0.1875,79.4226,48,519.4665,98,0.0073242188,-0.0024414063,46.09843,-15.223977,1253.3334,553.1013,6.9544387,44.444447,79.4226
603.18005, ,-0.1875,79.4226,48,519.2523,98,0,-0.0073242188,46.09843,-15.223977,1253.3334,553.1013,6.9544387,44.444447,79.4226
603.184, ,-0.1875,79.4226,48,519.4665,98,0,-0.0073242188,46.09843,-15.223977,1253.3334,553.1013,6.9544387,44.444447,79.4226
603.18805, ,-0.1875,79.42016,48,519.4665,98,0,-0.0073242188,46.09843,-15.223977,1253.3334,553.1013,6.9544387,44.444447,79.4226
603.192, ,-0.1875,79.42016,48,519.4665,98,-0.0024414063,-0.0024414063,46.09843,-15.223977,1253.3334,553.1013,6.9544387,44.444447,79.42016
603.19604, ,-0.1875,79.42016,48,519.2523,98,-0.0024414063,-0.0024414063,46.09843,-15.223977,1253.3334,553.1013,6.9544387,44.444447,79.42016
603.2, ,-0.1875,79.42016,48,519.2523,98,-0.0024414063,-0.0024414063,46.09843,-15.223977,1253.3334,553.1013,6.9544387,44.444447,79.42016
603.20404, ,-0.1875,79.415276,48,519.2523,98,-0.0048828125,-0.0024414063,46.09843,-15.223977,1253.3334,553.1013,6.9544387,44.444447,79.415276
603.208, ,-0.1875,79.415276,48,519.2523,98,-0.0048828125,-0.0024414063,46.09843,-15.223977,1253.3334,553.1013,6.9544387,44.444447,79.415276
603.21204, ,-0.1875,79.415276,48,519.2523,98,-0.0048828125,-0.0024414063,46.09843,-15.223977,1253.3334,553.1013,6.9544387,44.444447,79.415276
603.216, ,-0.1875,79.41039,48,519.2523,98,-0.0048828125,0,46.09843,-15.223977,1253.3334,553.1013,6.9544387,44.444447,79.41039
603.22003, ,-0.1875,79.41039,48,519.4665,98,-0.0048828125,0,46.09843,-15.223977,1253.3334,553.1013,6.9544387,44.444447,79.41039
603.224, ,-0.1875,79.41039,48,519.4665,98,-0.0048828125,0,46.09843,-15.223977,1253.3334,553.1013,6.9544387,44.444447,79.41039
603.228, ,-0.1875,79.412834,48,519.2523,98,0.0024414063,0.0073242188,46.09843,-15.223977,1253.3334,553.1013,6.9544387,44.444447,79.412834
603.23206, ,-0.1875,79.412834,48,519.4665,98,0.0024414063,0.0073242188,46.09843,-15.223977,1253.3334,553.1013,6.9544387,44.444447,79.412834
603.236, ,-0.1875,79.412834,48,519.2523,98,0.0024414063,0.0073242188,46.09843,-15.223977,1253.3334,553.1013,6.9544387,44.444447,79.412834
603.24005, ,-0.1875,79.4226,48,519.4665,98,0.009765625,0.0073242188,46.09843,-15.223977,1253.3334,553.1013,6.9544387,44.444447,79.4226
603.244, ,-0.1875,79.4226,48,519.4665,98,0.009765625,0.0073242188,46.09843,-15.223977,1253.3334,553.1013,6.9544387,44.444447,79.4226
603.24805, ,-0.1875,79.4226,48,519.4665,98,0.009765625,0.0073242188,46.09843,-15.223977,1253.3334,553.1013,6.9544387,44.444447,79.4226
603.252, ,-0.1875,79.4226,48,519.4665,98,0.009765625,0.0073242188,46.09843,-15.223977,1253.3334,553.1013,6.9544387,44.444447,79.4226
603.25604, ,-0.1875,79.44457,48,519.4665,98,0.021972656,0.012207031,46.09843,-15.223977,1253.3334,553.1013,6.9544387,44.444447,79.44457
603.26, ,-0.1875,79.44457,48,519.4665,98,0.021972656,0.012207031,46.09843,-15.223977,1253.3334,553.1013,6.9544387,44.444447,79.44457
603.26404, ,-0.1875,79.44457,48,519.4665,98,0.021972656,0.012207031,46.09843,-15.223977,1253.3334,553.1013,6.9544387,44.444447,79.44457
603.268, ,-0.1875,79.46899,48,519.2523,98,0.024414063,0.0024414063,46.09843,-15.223977,1253.3334,553.1013,6.9544387,44.444447,79.46899
603.27203, ,-0.1875,79.46899,48,519.4665,98,0.024414063,0.0024414063,46.09843,-15.223977,1253.3334,553.1013,6.9544387,44.444447,79.46899
603.276, ,-0.1875,79.46899,48,519.4665,98,0.024414063,0.0024414063,46.09843,-15.223977,1253.3334,553.1013,6.9544387,44.444447,79.46899
603.28, ,-0.1875,79.49584,48,519.4665,98,0.026855469,0.0024414063,46.09843,-15.223977,1253.3334,553.1013,6.9544387,44.444447,79.49584
603.28406, ,-0.1875,79.49584,48,519.2523,98,0.026855469,0.0024414063,46.09843,-15.223977,1253.3334,553.1013,6.9544387,44.444447,79.49584
603.288, ,-0.1875,79.49584,48,519.2523,98,0.026855469,0.0024414063,46.09843,-15.223977,1253.3334,553.1013,6.9544387,44.444447,79.49584
603.29205, ,-0.1875,79.49584,48,519.2523,98,0.026855469,0.0024414063,46.09843,-15.223977,1253.3334,553.1013,6.9544387,44.444447,79.49584
603.296, ,-0.1875,79.51537,48,519.4665,98,0.01953125,-0.0073242188,46.09843,-15.223977,1253.3334,553.1013,6.9544387,44.444447,79.51537
603.30005, ,-0.1875,79.51537,48,519.4665,98,0.01953125,-0.0073242188,46.09843,-15.223977,1253.3334,553.1013,6.9544387,44.444447,79.51537
603.304, ,-0.1875,79.51537,48,519.2523,98,0.01953125,-0.0073242188,46.09843,-15.223977,1253.3334,553.1013,6.9544387,44.444447,79.51537
603.30804, ,-0.1875,79.5227,48,519.2523,98,0.0073242188,-0.012207031,46.09843,-15.223977,1253.3334,553.1013,6.9544387,44.444447,79.5227
603.312, ,-0.1875,79.5227,48,519.2523,98,0.0073242188,-0.012207031,46.09843,-15.223977,1253.3334,553.1013,6.9544387,44.444447,79.5227
603.31604, ,-0.1875,79.5227,48,519.4665,98,0.0073242188,-0.012207031,46.09843,-15.223977,1253.3334,553.1013,6.9544387,44.444447,79.5227
603.32, ,-0.1875,79.52514,48,519.2523,98,0.0024414063,-0.0048828125,46.09843,-15.223977,1253.3334,553.1013,6.9544387,44.444447,79.52514
603.32404, ,-0.1875,79.52514,48,519.4665,98,0.0024414063,-0.0048828125,46.09843,-15.223977,1253.3334,553.1013,6.9544387,44.444447,79.52514
603.328, ,-0.1875,79.52514,48,519.2523,98,0.0024414063,-0.0048828125,46.09843,-15.223977,1253.3334,553.1013,6.9544387,44.444447,79.52514
603.33203, ,-0.1875,79.52514,48,519.4665,98,0.0024414063,-0.0048828125,46.09843,-15.223977,1253.3334,553.1013,6.9544387,44.444447,79.52514
603.336, ,-0.1875,79.517815,48,519.2523,98,-0.0073242188,-0.009765625,46.09843,-15.223977,1253.3334,553.1013,6.9544387,44.444447,79.517815
603.34, ,-0.1875,79.517815,48,519.2523,98,-0.0073242188,-0.009765625,46.09843,-15.223977,1253.3334,553.1013,6.9544387,44.444447,79.517815
603.34406, ,-0.1875,79.517815,48,519.2523,98,-0.0073242188,-0.009765625,46.09843,-15.223977,1253.3334,553.1013,6.9544387,44.444447,79.517815
603.348, ,-0.1875,79.50317,48,519.4665,98,-0.0146484375,-0.0073242188,46.09843,-15.223977,1253.3334,553.1013,6.9544387,44.444447,79.50317
603.35205, ,-0.1875,79.50317,48,519.4665,98,-0.0146484375,-0.0073242188,46.09843,-15.223977,1253.3334,553.1013,6.9544387,44.444447,79.50317
603.356, ,-0.1875,79.50317,48,519.0382,98,-0.0146484375,-0.0073242188,46.09843,-15.223977,1253.3334,553.1013,6.9544387,44.444447,79.50317
603.36005, ,-0.1875,79.48608,48,519.2523,98,-0.017089844,-0.0024414063,46.09843,-15.223977,1253.3334,553.1013,6.9544387,44.444447,79.48608
603.364, ,-0.1875,79.48608,48,519.2523,98,-0.017089844,-0.0024414063,46.09843,-15.223977,1253.3334,553.1013,6.9544387,44.444447,79.48608
603.36804, ,-0.1875,79.48608,48,519.4665,98,-0.017089844,-0.0024414063,46.09843,-15.223977,1253.3334,553.1013,6.9544387,44.444447,79.48608
603.372, ,-0.1875,79.48608,48,519.4665,98,-0.017089844,-0.0024414063,46.09843,-15.223977,1253.3334,553.1013,6.9544387,44.444447,79.48608
603.37604, ,-0.1875,79.47631,48,519.2523,98,-0.009765625,0.0073242188,46.09843,-15.223977,1253.3334,553.1013,6.9544387,44.444447,79.47631
603.38, ,-0.1875,79.47631,48,519.4665,98,-0.009765625,0.0073242188,46.09843,-15.223977,1253.3334,553.1013,6.9544387,44.444447,79.47631
603.38403, ,-0.1875,79.47631,48,519.4665,98,-0.009765625,0.0073242188,46.09843,-15.223977,1253.3334,553.1013,6.9544387,44.444447,79.47631
603.388, ,-0.1875,79.466545,48,519.2523,98,-0.009765625,0,46.09843,-15.223977,1253.3334,553.1013,6.9544387,44.444447,79.466545
603.392, ,-0.1875,79.466545,48,519.2523,98,-0.009765625,0,46.09843,-15.223977,1253.3334,553.1013,6.9544387,44.444447,79.466545
603.39606, ,-0.1875,79.466545,48,519.4665,98,-0.009765625,0,46.09843,-15.223977,1253.3334,553.1013,6.9544387,44.444447,79.466545
603.4, ,-0.1875,79.46166,48,519.4665,98,-0.0048828125,0.0048828125,46.09843,-15.223977,1253.3334,553.1013,6.9544387,44.444447,79.46166
603.40405, ,-0.1875,79.46166,48,519.2523,98,-0.0048828125,0.0048828125,46.09843,-15.223977,1253.3334,553.1013,6.9544387,44.444447,79.46166
603.408, ,-0.1875,79.46166,48,519.2523,98,-0.0048828125,0.0048828125,46.09843,-15.223977,1253.3334,553.1013,6.9544387,44.444447,79.46166
603.41205, ,-0.1875,79.46166,48,519.2523,98,-0.0048828125,0.0048828125,46.09843,-15.223977,1253.3334,553.1013,6.9544387,44.444447,79.46166
603.416, ,-0.1875,79.4641,48,519.4665,98,0.0024414063,0.0073242188,46.09843,-15.223977,1253.3334,553.1013,6.9544387,44.444447,79.4641
603.42004, ,-0.1875,79.4641,48,519.4665,98,0.0024414063,0.0073242188,46.09843,-15.223977,1253.3334,553.1013,6.9544387,44.444447,79.4641
603.424, ,-0.1875,79.4641,48,519.2523,98,0.0024414063,0.0073242188,46.09843,-15.223977,1253.3334,553.1013,6.9544387,44.444447,79.4641
603.42804, ,-0.1875,79.483635,48,519.4665,98,0.01953125,0.017089844,46.09843,-15.223977,1253.3334,553.1013,6.9544387,44.444447,79.483635
603.432, ,-0.1875,79.483635,48,519.4665,98,0.01953125,0.017089844,46.09843,-15.223977,1253.3334,553.1013,6.9544387,44.444447,79.483635
603.43604, ,-0.1875,79.483635,48,519.2523,98,0.01953125,0.017089844,46.09843,-15.223977,1253.3334,553.1013,6.9544387,44.444447,79.483635
603.44, ,-0.1875,79.54223,48,519.2523,98,0.05859375,0.0390625,46.09843,-15.223977,1253.3334,553.1013,6.9544387,44.444447,79.54223
603.44403, ,-0.1875,79.54223,48,519.4665,98,0.05859375,0.0390625,46.09843,-15.223977,1253.3334,553.1013,6.9544387,44.444447,79.54223
603.44806, ,-0.1875,79.54223,48,519.2523,98,0.05859375,0.0390625,46.09843,-15.223977,1253.3334,553.1013,6.9544387,44.444447,79.54223
603.452, ,-0.1875,79.54223,48,519.2523,98,0.05859375,0.0390625,46.09843,-15.223977,1253.3334,553.1013,6.9544387,44.444447,79.54223
603.45605, ,-0.1875,79.66674,48,519.2523,98,0.12451172,0.06591797,46.09843,-15.223977,1253.3334,553.1013,6.9544387,44.444447,79.66674
603.46, ,-0.1875,79.66674,48,519.2523,98,0.12451172,0.06591797,46.09843,-15.223977,1253.3334,553.1013,6.9544387,44.444447,79.66674
603.46405, ,-0.1875,79.66674,48,519.4665,98,0.12451172,0.06591797,46.09843,-15.223977,1253.3334,553.1013,6.9544387,44.444447,79.66674
603.468, ,-0.1875,79.87671,48,519.2523,98,0.20996857,0.08546448,46.09843,-15.223977,1253.3334,553.1013,6.9544387,44.444447,79.87671
603.47205, ,-0.1875,79.87671,48,519.2523,98,0.20996857,0.08546448,46.09843,-15.223977,1253.3334,553.1013,6.9544387,44.444447,79.87671
603.476, ,-0.1875,79.87671,48,519.2523,98,0.20996857,0.08546448,46.09843,-15.223977,1253.3334,553.1013,6.9544387,44.444447,79.87671
603.48004, ,-0.1875,80.15747,48,519.2523,98,0.28076172,0.07080078,46.09843,-15.223977,1253.3334,553.1013,6.9544387,44.444447,80.15747
603.484, ,-0.1875,80.15747,48,519.2523,98,0.28076172,0.07080078,46.09843,-15.223977,1253.3334,553.1013,6.9544387,44.444447,80.15747
603.48804, ,-0.1875,80.15747,48,519.4665,98,0.28076172,0.07080078,46.09843,-15.223977,1253.3334,553.1013,6.9544387,44.444447,80.15747
603.492, ,-0.1875,80.15747,48,519.4665,98,0.28076172,0.07080078,46.09843,-15.223977,1253.3334,553.1013,6.9544387,44.444447,80.15747
603.49603, ,-0.1875,80.48463,48,519.4665,98,0.32715607,0.04638672,46.09843,-15.223977,1253.3334,553.1013,6.9544387,44.444447,80.48463
603.5, ,-0.1875,80.48463,48,519.2523,98,0.32715607,0.04638672,46.09843,-15.223977,1253.3334,553.1013,6.9544387,44.444447,80.48463
603.504, ,-0.1875,80.48463,48,519.4665,98,0.32715607,0.04638672,46.09843,-15.223977,1253.3334,553.1013,6.9544387,44.444447,80.48463
603.50806, ,-0.1875,80.81178,48,519.4665,98,0.32715607,0,46.09843,-15.223977,1253.3334,553.1013,6.9544387,44.444447,80.81178
603.512, ,-0.1875,80.81178,48,519.4665,98,0.32715607,0,46.09843,-15.223977,1253.3334,553.1013,6.9544387,44.444447,80.81178
603.51605, ,-0.1875,80.81178,48,519.2523,98,0.32715607,0,46.09843,-15.223977,1253.3334,553.1013,6.9544387,44.444447,80.81178
603.52, ,-0.1875,81.0901,48,519.4665,98,0.2783203,-0.048828125,46.09843,-15.223977,1253.3334,553.1013,6.9544387,44.444447,81.0901
603.52405, ,-0.1875,81.0901,48,519.4665,98,0.2783203,-0.048828125,46.09843,-15.223977,1253.3334,553.1013,6.9544387,44.444447,81.0901
603.528, ,-0.1875,81.0901,48,519.4665,98,0.2783203,-0.048828125,46.09843,-15.223977,1253.3334,553.1013,6.9544387,44.444447,81.0901
603.53204, ,-0.1875,81.0901,48,519.4665,98,0.2783203,-0.048828125,46.09843,-15.223977,1253.3334,553.1013,6.9544387,44.444447,81.0901
603.536, ,-0.1875,81.29275,48,519.4665,98,0.20264435,-0.075683594,46.09843,-15.223977,1253.3334,553.1013,6.9544387,44.444447,81.29275
603.54004, ,-0.1875,81.29275,48,519.2523,98,0.20264435,-0.075683594,46.09843,-15.223977,1253.3334,553.1013,6.9544387,44.444447,81.29275
603.544, ,-0.1875,81.29275,48,519.2523,98,0.20264435,-0.075683594,46.09843,-15.223977,1253.3334,553.1013,6.9544387,44.444447,81.29275
603.54803, ,-0.1875,81.41726,48,519.4665,98,0.12451172,-0.07814026,46.09843,-15.223977,1253.3334,553.1013,6.9544387,44.444447,81.41726
603.552, ,-0.1875,81.41726,48,519.2523,98,0.12451172,-0.07814026,46.09843,-15.223977,1253.3334,553.1013,6.9544387,44.444447,81.41726
603.556, ,-0.1875,81.41726,48,519.2523,98,0.12451172,-0.07814026,46.09843,-15.223977,1253.3334,553.1013,6.9544387,44.444447,81.41726
603.56006, ,-0.1875,81.478294,48,519.4665,98,0.061035156,-0.06347656,46.09843,-15.223977,1253.3334,553.1013,6.9544387,44.444447,81.478294
603.564, ,-0.1875,81.478294,48,519.2523,98,0.061035156,-0.06347656,46.09843,-15.223977,1253.3334,553.1013,6.9544387,44.444447,81.478294
603.56805, ,-0.1875,81.478294,48,519.2523,98,0.061035156,-0.06347656,46.09843,-15.223977,1253.3334,553.1013,6.9544387,44.444447,81.478294
603.572, ,-0.1875,81.478294,48,519.4665,98,0.061035156,-0.06347656,46.09843,-15.223977,1253.3334,553.1013,6.9544387,44.444447,81.478294
603.57605, ,-0.1875,81.50027,48,519.4665,98,0.021972656,-0.0390625,48.682346,21.329153,1280,491.75427,3.725117,33.333336,79.71658
603.58, ,-0.1875,81.50027,48,519.4665,98,0.021972656,-0.0390625,48.682346,21.329153,1280,491.75427,3.725117,33.333336,79.71658
603.58405, ,-0.1875,81.50027,48,519.4665,98,0.021972656,-0.0390625,48.682346,21.329153,1280,491.75427,3.725117,33.333336,79.71658
603.588, ,-0.1875,81.50515,48,519.2523,98,0.0048828125,-0.017089844,48.682346,21.329153,1280,491.75427,3.725117,33.333336,79.92509
603.59204, ,-0.1875,81.50515,48,519.4665,98,0.0048828125,-0.017089844,48.682346,21.329153,1280,491.75427,3.725117,33.333336,79.92509
603.596, ,-0.1875,81.50515,48,519.4665,98,0.0048828125,-0.017089844,48.682346,21.329153,1280,491.75427,3.725117,33.333336,79.92509
603.60004, ,-0.1875,81.512474,48,519.4665,98,0.0073242188,0.0024414063,48.682346,21.329153,1280,491.75427,3.725117,33.333336,80.19346
603.604, ,-0.1875,81.512474,48,519.2523,98,0.0073242188,0.0024414063,48.682346,21.329153,1280,491.75427,3.725117,33.333336,80.19346
603.60803, ,-0.1875,81.512474,48,519.2523,98,0.0073242188,0.0024414063,48.682346,21.329153,1280,491.75427,3.725117,33.333336,80.19346
603.612, ,-0.1875,81.512474,48,519.4665,98,0.0073242188,0.0024414063,48.682346,21.329153,1280,491.75427,3.725117,33.333336,80.19346
603.616, ,-0.1875,81.529564,48,519.4665,98,0.017089844,0.009765625,48.682346,21.329153,1280,491.75427,3.725117,33.333336,80.50924
603.62006, ,-0.1875,81.529564,48,519.4665,98,0.017089844,0.009765625,48.682346,21.329153,1280,491.75427,3.725117,33.333336,80.50924
603.624, ,-0.1875,81.529564,48,519.4665,98,0.017089844,0.009765625,48.682346,21.329153,1280,491.75427,3.725117,33.333336,80.50924
603.62805, ,-0.1875,81.56863,48,519.2523,98,0.0390625,0.021972656,48.682346,21.329153,1280,491.75427,3.725117,33.333336,80.85727
603.632, ,-0.1875,81.56863,48,519.2523,98,0.0390625,0.021972656,48.682346,21.329153,1280,491.75427,3.725117,33.333336,80.85727
603.63605, ,-0.1875,81.56863,48,519.4665,98,0.0390625,0.021972656,48.682346,21.329153,1280,491.75427,3.725117,33.333336,80.85727
603.64, ,-0.1875,81.619896,48,519.2523,98,0.05126953,0.012207031,48.682346,21.329153,1280,491.75427,3.725117,33.333336,81.20487
603.64404, ,-0.1875,81.619896,48,519.2523,98,0.05126953,0.012207031,48.682346,21.329153,1280,491.75427,3.725117,33.333336,81.20487
603.648, ,-0.1875,81.619896,48,519.2523,98,0.05126953,0.012207031,48.682346,21.329153,1280,491.75427,3.725117,33.333336,81.20487
603.65204, ,-0.1875,81.619896,48,519.4665,98,0.05126953,0.012207031,48.682346,21.329153,1280,491.75427,3.725117,33.333336,81.20487
603.656, ,-0.1875,81.67849,48,519.2523,98,0.05859375,0.0073242188,48.682346,21.329153,1280,491.75427,3.725117,33.333336,81.52002
603.66003, ,-0.1875,81.67849,48,519.4665,98,0.05859375,0.0073242188,48.682346,21.329153,1280,491.75427,3.725117,33.333336,81.52002
603.664, ,-0.1875,81.67849,48,519.4665,98,0.05859375,0.0073242188,48.682346,21.329153,1280,491.75427,3.725117,33.333336,81.52002
603.668, ,-0.1875,81.73708,48,519.2523,98,0.05859375,0,48.682346,21.329153,1280,491.75427,3.725117,33.333336,81.77561
603.67206, ,-0.1875,81.73708,48,519.4665,98,0.05859375,0,48.682346,21.329153,1280,491.75427,3.725117,33.333336,81.77561
603.676, ,-0.1875,81.73708,48,519.2523,98,0.05859375,0,48.682346,21.329153,1280,491.75427,3.725117,33.333336,81.77561
603.68005, ,-0.1875,81.78348,48,519.2523,98,0.04639435,-0.012191772,48.682346,21.329153,1280,491.75427,3.725117,33.333336,81.94356
603.684, ,-0.1875,81.78348,48,519.2523,98,0.04639435,-0.012191772,48.682346,21.329153,1280,491.75427,3.725117,33.333336,81.94356
603.68805, ,-0.1875,81.78348,48,519.2523,98,0.04639435,-0.012191772,48.682346,21.329153,1280,491.75427,3.725117,33.333336,81.94356
603.692, ,-0.1875,81.78348,48,519.2523,98,0.04639435,-0.012191772,48.682346,21.329153,1280,491.75427,3.725117,33.333336,81.94356
603.69604, ,-0.1875,81.795685,48,519.2523,98,0.012207031,-0.034179688,48.682346,21.329153,1280,491.75427,3.725117,33.333336,81.99081
603.7, ,-0.1875,81.795685,48,519.2523,98,0.012207031,-0.034179688,48.682346,21.329153,1280,491.75427,3.725117,33.333336,81.99081
603.70404, ,-0.1875,81.795685,48,519.4665,98,0.012207031,-0.034179688,48.682346,21.329153,1280,491.75427,3.725117,33.333336,81.99081
603.708, ,-0.1875,81.76395,48,519.4665,98,-0.03173828,-0.043945313,48.682346,21.329153,1280,491.75427,3.725117,33.333336,81.917336
603.71204, ,-0.1875,81.76395,48,519.4665,98,-0.03173828,-0.043945313,48.682346,21.329153,1280,491.75427,3.725117,33.333336,81.917336
603.716, ,-0.1875,81.76395,48,519.4665,98,-0.03173828,-0.043945313,48.682346,21.329153,1280,491.75427,3.725117,33.333336,81.917336
603.72003, ,-0.1875,81.67849,48,519.4665,98,-0.08545685,-0.053710938,48.682346,21.329153,1280,491.75427,3.725117,33.333336,81.75987
603.724, ,-0.1875,81.67849,48,519.4665,98,-0.08545685,-0.053710938,48.682346,21.329153,1280,491.75427,3.725117,33.333336,81.75987
603.728, ,-0.1875,81.67849,48,519.4665,98,-0.08545685,-0.053710938,48.682346,21.329153,1280,491.75427,3.725117,33.333336,81.75987
603.73206, ,-0.1875,81.67849,48,519.4665,98,-0.08545685,-0.053710938,48.682346,21.329153,1280,491.75427,3.725117,33.333336,81.75987
603.736, ,-0.1875,81.53445,48,519.4665,98,-0.14404297,-0.05857849,48.682346,21.329153,1280,491.75427,3.725117,33.333336,81.563416
603.74005, ,-0.1875,81.53445,48,519.2523,98,-0.14404297,-0.05857849,48.682346,21.329153,1280,491.75427,3.725117,33.333336,81.563416
603.744, ,-0.1875,81.53445,48,519.4665,98,-0.14404297,-0.05857849,48.682346,21.329153,1280,491.75427,3.725117,33.333336,81.563416
603.74805, ,-0.1875,81.3489,48,519.4665,98,-0.18554688,-0.041503906,48.682346,21.329153,1280,491.75427,3.725117,33.333336,81.35588
603.752, ,-0.1875,81.3489,48,519.4665,98,-0.18554688,-0.041503906,48.682346,21.329153,1280,491.75427,3.725117,33.333336,81.35588
603.75604, ,-0.1875,81.3489,48,519.4665,98,-0.18554688,-0.041503906,48.682346,21.329153,1280,491.75427,3.725117,33.333336,81.35588
603.76, ,-0.1875,81.143814,48,519.2523,98,-0.20508575,-0.019546509,48.682346,21.329153,1280,491.75427,3.725117,33.333336,81.14494
603.76404, ,-0.1875,81.143814,48,519.4665,98,-0.20508575,-0.019546509,48.682346,21.329153,1280,491.75427,3.725117,33.333336,81.14494
603.768, ,-0.1875,81.143814,48,519.2523,98,-0.20508575,-0.019546509,48.682346,21.329153,1280,491.75427,3.725117,33.333336,81.14494
603.77203, ,-0.1875,81.143814,48,519.4665,98,-0.20508575,-0.019546509,48.682346,21.329153,1280,491.75427,3.725117,33.333336,81.14494
603.776, ,-0.1875,80.95094,48,519.4665,98,-0.1928711,0.012207031,48.682346,21.329153,1280,491.75427,3.725117,33.333336,80.951065
603.78, ,-0.1875,80.95094,48,519.2523,98,-0.1928711,0.012207031,48.682346,21.329153,1280,491.75427,3.725117,33.333336,80.951065
603.78406, ,-0.1875,80.95094,48,519.2523,98,-0.1928711,0.012207031,48.682346,21.329153,1280,491.75427,3.725117,33.333336,80.951065
603.788, ,-0.1875,80.78981,48,519.4665,98,-0.16113281,0.03173828,48.682346,21.329153,1280,491.75427,3.725117,33.333336,80.78982
603.79205, ,-0.1875,80.78981,48,519.2523,98,-0.16113281,0.03173828,48.682346,21.329153,1280,491.75427,3.725117,33.333336,80.78982
603.796, ,-0.1875,80.78981,48,519.2523,98,-0.16113281,0.03173828,48.682346,21.329153,1280,491.75427,3.725117,33.333336,80.78982
603.80005, ,-0.1875,80.78981,48,519.4665,98,-0.16113281,0.03173828,48.682346,21.329153,1280,491.75427,3.725117,33.333336,80.78982
603.804, ,-0.1875,80.67017,48,519.4665,98,-0.119636536,0.041503906,48.682346,21.329153,1280,491.75427,3.725117,33.333336,80.67017
603.80804, ,-0.1875,80.67017,48,519.2523,98,-0.119636536,0.041503906,48.682346,21.329153,1280,491.75427,3.725117,33.333336,80.67017
603.812, ,-0.1875,80.67017,48,519.4665,98,-0.119636536,0.041503906,48.682346,21.329153,1280,491.75427,3.725117,33.333336,80.67017
603.81604, ,-0.1875,80.59693,48,519.2523,98,-0.07324219,0.046401978,48.682346,21.329153,1280,491.75427,3.725117,33.333336,79.45437
603.82, ,-0.1875,80.59693,48,519.4665,98,-0.07324219,0.046401978,48.682346,21.329153,1280,491.75427,3.725117,33.333336,79.45437
603.82404, ,-0.1875,80.59693,48,519.4665,98,-0.07324219,0.046401978,48.682346,21.329153,1280,491.75427,3.725117,33.333336,79.45437
603.828, ,-0.1875,80.5481,48,519.4665,98,-0.048828125,0.024414063,48.682346,21.329153,1280,491.75427,3.725117,33.333336,79.46468
603.83203, ,-0.1875,80.5481,48,519.4665,98,-0.048828125,0.024414063,48.682346,21.329153,1280,491.75427,3.725117,33.333336,79.46468
603.836, ,-0.1875,80.5481,48,519.4665,98,-0.048828125,0.024414063,48.682346,21.329153,1280,491.75427,3.725117,33.333336,79.46468
603.84, ,-0.1875,80.5481,48,519.2523,98,-0.048828125,0.024414063,48.682346,21.329153,1280,491.75427,3.725117,33.333336,79.46468
603.84406, ,-0.1875,80.50172,48,519.4665,98,-0.04638672,0.0024414063,48.682346,21.329153,1280,491.75427,3.725117,33.333336,79.51868
603.848, ,-0.1875,80.50172,48,519.4665,98,-0.04638672,0.0024414063,48.682346,21.329153,1280,491.75427,3.725117,33.333336,79.51868
603.85205, ,-0.1875,80.50172,48,519.4665,98,-0.04638672,0.0024414063,48.682346,21.329153,1280,491.75427,3.725117,33.333336,79.51868
603.856, ,-0.1875,80.44068,48,519.4665,98,-0.061035156,-0.0146484375,48.682346,21.329153,1280,491.75427,3.725117,33.333336,79.595436
603.86005, ,-0.1875,80.44068,48,519.2523,98,-0.061035156,-0.0146484375,48.682346,21.329153,1280,491.75427,3.725117,33.333336,79.595436
603.864, ,-0.1875,80.44068,48,519.4665,98,-0.061035156,-0.0146484375,48.682346,21.329153,1280,491.75427,3.725117,33.333336,79.595436
603.86804, ,-0.1875,80.36256,48,519.2523,98,-0.078125,-0.017089844,48.682346,21.329153,1280,491.75427,3.725117,33.333336,79.68138
603.872, ,-0.1875,80.36256,48,519.4665,98,-0.078125,-0.017089844,48.682346,21.329153,1280,491.75427,3.725117,33.333336,79.68138
603.87604, ,-0.1875,80.36256,48,519.2523,98,-0.078125,-0.017089844,48.682346,21.329153,1280,491.75427,3.725117,33.333336,79.68138
603.88, ,-0.1875,80.36256,48,519.4665,98,-0.078125,-0.017089844,48.682346,21.329153,1280,491.75427,3.725117,33.333336,79.68138
603.88403, ,-0.1875,80.272224,48,519.2523,98,-0.09033203,-0.012207031,48.682346,21.329153,1280,491.75427,3.725117,33.333336,79.769775
603.888, ,-0.1875,80.272224,48,519.2523,98,-0.09033203,-0.012207031,48.682346,21.329153,1280,491.75427,3.725117,33.333336,79.769775
603.892, ,-0.1875,80.272224,48,519.4665,98,-0.09033203,-0.012207031,48.682346,21.329153,1280,491.75427,3.725117,33.333336,79.769775
603.89606, ,-0.1875,80.18677,48,519.4665,98,-0.08545685,0.0048675537,48.682346,21.329153,1280,491.75427,3.725117,33.333336,79.861496
603.9, ,-0.1875,80.18677,48,519.4665,98,-0.08545685,0.0048675537,48.682346,21.329153,1280,491.75427,3.725117,33.333336,79.861496
603.90405, ,-0.1875,80.18677,48,519.4665,98,-0.08545685,0.0048675537,48.682346,21.329153,1280,491.75427,3.725117,33.333336,79.861496
603.908, ,-0.1875,80.113525,48,519.2523,98,-0.07324219,0.012207031,48.682346,21.329153,1280,491.75427,3.725117,33.333336,79.95078
603.91205, ,-0.1875,80.113525,48,519.4665,98,-0.07324219,0.012207031,48.682346,21.329153,1280,491.75427,3.725117,33.333336,79.95078
603.916, ,-0.1875,80.113525,48,519.4665,98,-0.07324219,0.012207031,48.682346,21.329153,1280,491.75427,3.725117,33.333336,79.95078
603.92004, ,-0.1875,80.05493,48,519.4665,98,-0.05859375,0.0146484375,48.682346,21.329153,1280,491.75427,3.725117,33.333336,80.02519
603.924, ,-0.1875,80.05493,48,519.4665,98,-0.05859375,0.0146484375,48.682346,21.329153,1280,491.75427,3.725117,33.333336,80.02519
603.92804, ,-0.1875,80.05493,48,519.4665,98,-0.05859375,0.0146484375,48.682346,21.329153,1280,491.75427,3.725117,33.333336,80.02519
603.932, ,-0.1875,80.05493,48,519.4665,98,-0.05859375,0.0146484375,48.682346,21.329153,1280,491.75427,3.725117,33.333336,80.02519
603.93604, ,-0.1875,80.00122,48,519.2523,98,-0.053710938,0.0048828125,48.682346,21.329153,1280,491.75427,3.725117,33.333336,80.065094
603.94, ,-0.1875,80.00122,48,519.4665,98,-0.053710938,0.0048828125,48.682346,21.329153,1280,491.75427,3.725117,33.333336,80.065094
603.94403, ,-0.1875,80.00122,48,519.4665,98,-0.053710938,0.0048828125,48.682346,21.329153,1280,491.75427,3.725117,33.333336,80.065094
603.94806, ,-0.1875,79.94507,48,519.2523,98,-0.056152344,-0.0024414063,48.682346,21.329153,1280,491.75427,3.725117,33.333336,80.054596
603.952, ,-0.1875,79.94507,48,519.4665,98,-0.056152344,-0.0024414063,48.682346,21.329153,1280,491.75427,3.725117,33.333336,80.054596
603.95605, ,-0.1875,79.94507,48,519.4665,98,-0.056152344,-0.0024414063,48.682346,21.329153,1280,491.75427,3.725117,33.333336,80.054596
603.96, ,-0.1875,79.94507,48,519.4665,98,-0.056152344,-0.0024414063,48.682346,21.329153,1280,491.75427,3.725117,33.333336,80.054596
603.96405, ,-0.1875,79.87671,48,519.4665,98,-0.068359375,-0.012207031,48.682346,21.329153,1280,491.75427,3.725117,33.333336,79.98229
603.968, ,-0.1875,79.87671,48,519.4665,98,-0.068359375,-0.012207031,48.682346,21.329153,1280,491.75427,3.725117,33.333336,79.98229
603.97205, ,-0.1875,79.87671,48,519.4665,98,-0.068359375,-0.012207031,48.682346,21.329153,1280,491.75427,3.725117,33.333336,79.98229
603.976, ,-0.1875,79.80347,48,519.2523,98,-0.07324219,-0.0048828125,48.682346,21.329153,1280,491.75427,3.725117,33.333336,79.87157
603.98004, ,-0.1875,79.80347,48,519.2523,98,-0.07324219,-0.0048828125,48.682346,21.329153,1280,491.75427,3.725117,33.333336,79.87157
603.984, ,-0.1875,79.80347,48,519.4665,98,-0.07324219,-0.0048828125,48.682346,21.329153,1280,491.75427,3.725117,33.333336,79.87157
603.98804, ,-0.1875,79.73022,48,519.4665,98,-0.07324982,0,48.682346,21.329153,1280,491.75427,3.725117,33.333336,79.75989
603.992, ,-0.1875,79.73022,48,519.2523,98,-0.07324982,0,48.682346,21.329153,1280,491.75427,3.725117,33.333336,79.75989
603.99603, ,-0.1875,79.73022,48,519.4665,98,-0.07324982,0,48.682346,21.329153,1280,491.75427,3.725117,33.333336,79.75989
604, ,-0.1875,79.66186,48,519.2523,98,-0.068359375,0.0048980713,48.682346,21.329153,1280,491.75427,3.725117,33.333336,79.670525
604.004, ,-0.1875,79.66186,48,519.2523,98,-0.068359375,0.0048980713,48.682346,21.329153,1280,491.75427,3.725117,33.333336,79.670525
604.00806, ,-0.1875,79.66186,48,519.4665,98,-0.068359375,0.0048980713,48.682346,21.329153,1280,491.75427,3.725117,33.333336,79.670525
604.012, ,-0.1875,79.66186,48,519.4665,98,-0.068359375,0.0048980713,48.682346,21.329153,1280,491.75427,3.725117,33.333336,79.670525
604.01605, ,-0.1875,79.59594,48,519.4665,98,-0.06591797,0.0024414063,48.682346,21.329153,1280,491.75427,3.725117,33.333336,79.59766
604.02, ,-0.1875,79.59594,48,519.4665,98,-0.06591797,0.0024414063,48.682346,21.329153,1280,491.75427,3.725117,33.333336,79.59766
604.02405, ,-0.1875,79.59594,48,519.4665,98,-0.06591797,0.0024414063,48.682346,21.329153,1280,491.75427,3.725117,33.333336,79.59766
604.028, ,-0.1875,79.537346,48,519.2523,98,-0.05859375,0.0073242188,48.682346,21.329153,1280,491.75427,3.725117,33.333336,79.537575
604.03204, ,-0.1875,79.537346,48,519.2523,98,-0.05859375,0.0073242188,48.682346,21.329153,1280,491.75427,3.725117,33.333336,79.537575
604.036, ,-0.1875,79.537346,48,519.4665,98,-0.05859375,0.0073242188,48.682346,21.329153,1280,491.75427,3.725117,33.333336,79.537575
604.04004, ,-0.1875,79.537346,48,519.2523,98,-0.05859375,0.0073242188,48.682346,21.329153,1280,491.75427,3.725117,33.333336,79.537575
604.044, ,-0.1875,79.48608,48,519.4665,98,-0.05126953,0.0073242188,48.682346,21.329153,1280,491.75427,3.725117,33.333336,79.4861
604.04803, ,-0.1875,79.48608,48,519.2523,98,-0.05126953,0.0073242188,48.682346,21.329153,1280,491.75427,3.725117,33.333336,79.4861
604.052, ,-0.1875,79.48608,48,519.4665,98,-0.05126953,0.0073242188,48.682346,21.329153,1280,491.75427,3.725117,33.333336,79.4861
604.056, ,-0.1875,79.43969,48,519.4665,98,-0.04638672,0.0048828125,48.682346,21.329153,1280,491.75427,3.725117,33.333336,79.43969
604.06006, ,-0.1875,79.43969,48,519.4665,98,-0.04638672,0.0048828125,48.682346,21.329153,1280,491.75427,3.725117,33.333336,79.43969
604.064, ,-0.1875,79.43969,48,519.4665,98,-0.04638672,0.0048828125,48.682346,21.329153,1280,491.75427,3.725117,33.333336,79.43969
604.06805, ,-0.1875,79.40307,48,519.4665,98,-0.036621094,0.009765625,48.682346,21.329153,1280,491.75427,3.725117,33.333336,79.40307
604.072, ,-0.1875,79.40307,48,519.2523,98,-0.036621094,0.009765625,48.682346,21.329153,1280,491.75427,3.725117,33.333336,79.40307
604.07605, ,-0.1875,79.40307,48,519.2523,98,-0.036621094,0.009765625,48.682346,21.329153,1280,491.75427,3.725117,33.333336,79.40307
604.08, ,-0.1875,79.381096,48,519.4665,98,-0.021972656,0.0146484375,48.682346,21.329153,1280,491.75427,3.725117,33.333336,79.381096
604.08405, ,-0.1875,79.381096,48,519.4665,98,-0.021972656,0.0146484375,48.682346,21.329153,1280,491.75427,3.725117,33.333336,79.381096
604.088, ,-0.1875,79.381096,48,519.4665,98,-0.021972656,0.0146484375,48.682346,21.329153,1280,491.75427,3.725117,33.333336,79.381096
604.09204, ,-0.1875,79.381096,48,519.4665,98,-0.021972656,0.0146484375,48.682346,21.329153,1280,491.75427,3.725117,33.333336,79.381096
604.096, ,-0.1875,79.37377,48,519.2523,98,-0.0073242188,0.0146484375,48.682346,21.329153,1280,491.75427,3.725117,33.333336,79.37377
604.10004, ,-0.1875,79.37377,48,519.4665,98,-0.0073242188,0.0146484375,48.682346,21.329153,1280,491.75427,3.725117,33.333336,79.37377
604.104, ,-0.1875,79.37377,48,519.4665,98,-0.0073242188,0.0146484375,48.682346,21.329153,1280,491.75427,3.725117,33.333336,79.37377
604.10803, ,-0.1875,79.36889,48,519.4665,98,-0.0048828125,0.0024414063,48.682346,21.329153,1280,491.75427,3.725117,33.333336,79.36889
604.112, ,-0.1875,79.36889,48,519.4665,98,-0.0048828125,0.0024414063,48.682346,21.329153,1280,491.75427,3.725117,33.333336,79.36889
604.116, ,-0.1875,79.36889,48,519.4665,98,-0.0048828125,0.0024414063,48.682346,21.329153,1280,491.75427,3.725117,33.333336,79.36889
604.12006, ,-0.1875,79.36889,48,519.2523,98,-0.0048828125,0.0024414063,48.682346,21.329153,1280,491.75427,3.725117,33.333336,79.36889
604.124, ,-0.1875,79.35912,48,519.4665,98,-0.009765625,-0.0048828125,48.682346,21.329153,1280,491.75427,3.725117,33.333336,79.35912
604.12805, ,-0.1875,79.35912,48,519.2523,98,-0.009765625,-0.0048828125,48.682346,21.329153,1280,491.75427,3.725117,33.333336,79.35912
604.132, ,-0.1875,79.35912,48,519.2523,98,-0.009765625,-0.0048828125,48.682346,21.329153,1280,491.75427,3.725117,33.333336,79.35912
604.13605, ,-0.1875,79.344475,48,519.2523,98,-0.0146484375,-0.0048828125,48.682346,21.329153,1280,491.75427,3.725117,33.333336,79.344475
604.14, ,-0.1875,79.344475,48,519.4665,98,-0.0146484375,-0.0048828125,48.682346,21.329153,1280,491.75427,3.725117,33.333336,79.344475
604.14404, ,-0.1875,79.344475,48,519.4665,98,-0.0146484375,-0.0048828125,48.682346,21.329153,1280,491.75427,3.725117,33.333336,79.344475
604.148, ,-0.1875,79.3225,48,519.2523,98,-0.021972656,-0.0073242188,48.682346,21.329153,1280,491.75427,3.725117,33.333336,79.3225
604.15204, ,-0.1875,79.3225,48,519.2523,98,-0.021972656,-0.0073242188,48.682346,21.329153,1280,491.75427,3.725117,33.333336,79.3225
604.156, ,-0.1875,79.3225,48,519.2523,98,-0.021972656,-0.0073242188,48.682346,21.329153,1280,491.75427,3.725117,33.333336,79.3225
604.16003, ,-0.1875,79.3225,48,519.0382,98,-0.021972656,-0.0073242188,48.682346,21.329153,1280,491.75427,3.725117,33.333336,79.3225
604.164, ,-0.1875,79.30541,48,519.2523,98,-0.017089844,0.0048828125,48.682346,21.329153,1280,491.75427,3.725117,33.333336,79.30541
604.168, ,-0.1875,79.30541,48,519.2523,98,-0.017089844,0.0048828125,48.682346,21.329153,1280,491.75427,3.725117,33.333336,79.30541
604.17206, ,-0.1875,79.30541,48,519.4665,98,-0.017089844,0.0048828125,48.682346,21.329153,1280,491.75427,3.725117,33.333336,79.30541
604.176, ,-0.1875,79.29809,48,519.4665,98,-0.0073242188,0.009765625,48.682346,21.329153,1280,491.75427,3.725117,33.333336,79.29809
604.18005, ,-0.1875,79.29809,48,519.4665,98,-0.0073242188,0.009765625,48.682346,21.329153,1280,491.75427,3.725117,33.333336,79.29809
604.184, ,-0.1875,79.29809,48,519.2523,98,-0.0073242188,0.009765625,48.682346,21.329153,1280,491.75427,3.725117,33.333336,79.29809
604.18805, ,-0.1875,79.30053,48,519.4665,98,0.0024414063,0.009765625,48.682346,21.329153,1280,491.75427,3.725117,33.333336,79.30053
604.192, ,-0.1875,79.30053,48,519.4665,98,0.0024414063,0.009765625,48.682346,21.329153,1280,491.75427,3.725117,33.333336,79.30053
604.19604, ,-0.1875,79.30053,48,519.4665,98,0.0024414063,0.009765625,48.682346,21.329153,1280,491.75427,3.725117,33.333336,79.30053
604.2, ,-0.1875,79.30053,48,519.4665,98,0.0024414063,0.009765625,48.682346,21.329153,1280,491.75427,3.725117,33.333336,79.30053
604.20404, ,-0.1875,79.31274,48,519.4665,98,0.012207031,0.009765625,48.682346,21.329153,1280,491.75427,3.725117,33.333336,79.31274
604.208, ,-0.1875,79.31274,48,519.4665,98,0.012207031,0.009765625,48.682346,21.329153,1280,491.75427,3.725117,33.333336,79.31274
604.21204, ,-0.1875,79.31274,48,519.2523,98,0.012207031,0.009765625,48.682346,21.329153,1280,491.75427,3.725117,33.333336,79.31274
604.216, ,-0.1875,79.3225,48,519.4665,98,0.009765625,-0.0024414063,48.682346,21.329153,1280,491.75427,3.725117,33.333336,79.3225
604.22003, ,-0.1875,79.3225,48,519.4665,98,0.009765625,-0.0024414063,48.682346,21.329153,1280,491.75427,3.725117,33.333336,79.3225
604.224, ,-0.1875,79.3225,48,519.2523,98,0.009765625,-0.0024414063,48.682346,21.329153,1280,491.75427,3.725117,33.333336,79.3225
604.228, ,-0.1875,79.32006,48,519.4665,98,-0.0024414063,-0.012207031,48.682346,21.329153,1280,491.75427,3.725117,33.333336,79.32006
604.23206, ,-0.1875,79.32006,48,519.4665,98,-0.0024414063,-0.012207031,48.682346,21.329153,1280,491.75427,3.725117,33.333336,79.32006
604.236, ,-0.1875,79.32006,48,519.4665,98,-0.0024414063,-0.012207031,48.682346,21.329153,1280,491.75427,3.725117,33.333336,79.32006
604.24005, ,-0.1875,79.30297,48,519.4665,98,-0.017089844,-0.0146484375,48.682346,21.329153,1280,491.75427,3.725117,33.333336,79.30297
604.244, ,-0.1875,79.30297,48,519.4665,98,-0.017089844,-0.0146484375,48.682346,21.329153,1280,491.75427,3.725117,33.333336,79.30297
604.24805, ,-0.1875,79.30297,48,519.4665,98,-0.017089844,-0.0146484375,48.682346,21.329153,1280,491.75427,3.725117,33.333336,79.30297
604.252, ,-0.1875,79.30297,48,519.4665,98,-0.017089844,-0.0146484375,48.682346,21.329153,1280,491.75427,3.725117,33.333336,79.30297
604.25604, ,-0.1875,79.28344,48,519.4665,98,-0.01953125,-0.0024414063,48.682346,21.329153,1280,491.75427,3.725117,33.333336,79.28344
604.26, ,-0.1875,79.28344,48,519.2523,98,-0.01953125,-0.0024414063,48.682346,21.329153,1280,491.75427,3.725117,33.333336,79.28344
604.26404, ,-0.1875,79.28344,48,519.2523,98,-0.01953125,-0.0024414063,48.682346,21.329153,1280,491.75427,3.725117,33.333336,79.28344
604.268, ,-0.1875,79.26635,48,519.4665,98,-0.017089844,0.0024414063,48.682346,21.329153,1280,491.75427,3.725117,33.333336,79.26635
604.27203, ,-0.1875,79.26635,48,519.2523,98,-0.017089844,0.0024414063,48.682346,21.329153,1280,491.75427,3.725117,33.333336,79.26635
604.276, ,-0.1875,79.26635,48,519.4665,98,-0.017089844,0.0024414063,48.682346,21.329153,1280,491.75427,3.725117,33.333336,79.26635
604.28, ,-0.1875,79.26635,48,519.4665,98,-0.017089844,0.0024414063,48.682346,21.329153,1280,491.75427,3.725117,33.333336,79.26635
604.28406, ,-0.1875,79.2517,48,519.4665,98,-0.0146484375,0.0024414063,48.682346,21.329153,1280,491.75427,3.725117,33.333336,79.2517
604.288, ,-0.1875,79.2517,48,519.4665,98,-0.0146484375,0.0024414063,48.682346,21.329153,1280,491.75427,3.725117,33.333336,79.2517
604.29205, ,-0.1875,79.2517,48,519.2523,98,-0.0146484375,0.0024414063,48.682346,21.329153,1280,491.75427,3.725117,33.333336,79.2517
604.296, ,-0.1875,79.2517,48,519.2523,98,-0.0146484375,0.0024414063,48.682346,21.329153,1280,491.75427,3.725117,33.333336,79.2517
604.30005, ,-0.1875,79.2517,48,519.4665,98,0,0.0146484375,48.682346,21.329153,1280,491.75427,3.725117,33.333336,79.2517
604.304, ,-0.1875,79.2517,48,519.4665,98,0,0.0146484375,48.682346,21.329153,1280,491.75427,3.725117,33.333336,79.2517
604.30804, ,-0.1875,79.256584,48,519.2523,98,0,0.0146484375,48.682346,21.329153,1280,491.75427,3.725117,33.333336,79.2517
604.312, ,-0.1875,79.256584,48,519.2523,98,0.0048828125,0.0048828125,48.682346,21.329153,1280,491.75427,3.725117,33.333336,79.256584
604.31604, ,-0.1875,79.256584,48,519.4665,98,0.0048828125,0.0048828125,48.682346,21.329153,1280,491.75427,3.725117,33.333336,79.256584
604.32, ,-0.1875,79.26147,48,519.2523,98,0.0048828125,0.0048828125,48.682346,21.329153,1280,491.75427,3.725117,33.333336,79.256584
604.32404, ,-0.1875,79.26147,48,519.2523,98,0.0048828125,0,48.682346,21.329153,1280,491.75427,3.725117,33.333336,79.26147
604.328, ,-0.1875,79.26147,48,519.4665,98,0.0048828125,0,48.682346,21.329153,1280,491.75427,3.725117,33.333336,79.26147
604.33203, ,-0.1875,79.26147,48,519.4665,98,0.0048828125,0,48.682346,21.329153,1280,491.75427,3.725117,33.333336,79.26147
604.336, ,-0.1875,79.24925,48,519.2523,98,-0.012214661,-0.017105103,48.682346,21.329153,1280,491.75427,3.725117,33.333336,79.24925
604.34, ,-0.1875,79.24925,48,519.4665,98,-0.012214661,-0.017105103,48.682346,21.329153,1280,491.75427,3.725117,33.333336,79.24925
604.34406, ,-0.1875,79.24925,48,519.4665,98,-0.012214661,-0.017105103,48.682346,21.329153,1280,491.75427,3.725117,33.333336,79.24925
604.348, ,-0.1875,79.23216,48,519.2523,98,-0.017089844,-0.0048828125,48.682346,21.329153,1280,491.75427,3.725117,33.333336,79.23216
604.35205, ,-0.1875,79.23216,48,519.4665,98,-0.017089844,-0.0048828125,48.682346,21.329153,1280,491.75427,3.725117,33.333336,79.23216
604.356, ,-0.1875,79.23216,48,519.4665,98,-0.017089844,-0.0048828125,48.682346,21.329153,1280,491.75427,3.725117,33.333336,79.23216
604.36005, ,-0.1875,79.23216,48,519.2523,98,-0.017089844,-0.0048828125,48.682346,21.329153,1280,491.75427,3.725117,33.333336,79.23216
604.364, ,-0.1875,79.20531,48,519.2523,98,-0.026855469,-0.009765625,48.682346,21.329153,1280,491.75427,3.725117,33.333336,79.20531
604.36804, ,-0.1875,79.20531,48,519.2523,98,-0.026855469,-0.009765625,48.682346,21.329153,1280,491.75427,3.725117,33.333336,79.20531
604.372, ,-0.1875,79.20531,48,519.2523,98,-0.026855469,-0.009765625,48.682346,21.329153,1280,491.75427,3.725117,33.333336,79.20531
604.37604, ,-0.1875,79.17845,48,519.4665,98,-0.026855469,0,48.682346,21.329153,1280,491.75427,3.725117,33.333336,79.17845
604.38, ,-0.1875,79.17845,48,519.4665,98,-0.026855469,0,48.682346,21.329153,1280,491.75427,3.725117,33.333336,79.17845
604.38403, ,-0.1875,79.17845,48,519.4665,98,-0.026855469,0,48.682346,21.329153,1280,491.75427,3.725117,33.333336,79.17845
604.388, ,-0.1875,79.1638,48,519.4665,98,-0.0146484375,0.012207031,48.682346,21.329153,1280,491.75427,3.725117,33.333336,79.1638
604.392, ,-0.1875,79.1638,48,519.2523,98,-0.0146484375,0.012207031,48.682346,21.329153,1280,491.75427,3.725117,33.333336,79.1638
604.39606, ,-0.1875,79.1638,48,519.4665,98,-0.0146484375,0.012207031,48.682346,21.329153,1280,491.75427,3.725117,33.333336,79.1638
604.4, ,-0.1875,79.17113,48,519.4665,98,0.0073242188,0.021972656,48.682346,21.329153,1280,491.75427,3.725117,33.333336,79.17113
604.40405, ,-0.1875,79.17113,48,519.2523,98,0.0073242188,0.021972656,48.682346,21.329153,1280,491.75427,3.725117,33.333336,79.17113
604.408, ,-0.1875,79.17113,48,519.4665,98,0.0073242188,0.021972656,48.682346,21.329153,1280,491.75427,3.725117,33.333336,79.17113
604.41205, ,-0.1875,79.17113,48,519.4665,98,0.0073242188,0.021972656,48.682346,21.329153,1280,491.75427,3.725117,33.333336,79.17113
604.416, ,-0.1875,79.19066,48,519.2523,98,0.01953125,0.012207031,48.682346,21.329153,1280,491.75427,3.725117,33.333336,79.19066
604.42004, ,-0.1875,79.19066,48,519.4665,98,0.01953125,0.012207031,48.682346,21.329153,1280,491.75427,3.725117,33.333336,79.19066
604.424, ,-0.1875,79.19066,48,519.4665,98,0.01953125,0.012207031,48.682346,21.329153,1280,491.75427,3.725117,33.333336,79.19066
604.42804, ,-0.1875,79.21019,48,519.2523,98,0.01953125,0,48.682346,21.329153,1280,491.75427,3.725117,33.333336,79.21019
604.432, ,-0.1875,79.21019,48,519.4665,98,0.01953125,0,48.682346,21.329153,1280,491.75427,3.725117,33.333336,79.21019
604.43604, ,-0.1875,79.21019,48,519.4665,98,0.01953125,0,48.682346,21.329153,1280,491.75427,3.725117,33.333336,79.21019
604.44, ,-0.1875,79.21019,48,519.4665,98,0.01953125,0,48.682346,21.329153,1280,491.75427,3.725117,33.333336,79.21019
604.44403, ,-0.1875,79.22728,48,519.4665,98,0.017089844,-0.0024414063,48.682346,21.329153,1280,491.75427,3.725117,33.333336,79.22728
604.44806, ,-0.1875,79.22728,48,519.4665,98,0.017089844,-0.0024414063,48.682346,21.329153,1280,491.75427,3.725117,33.333336,79.22728
604.452, ,-0.1875,79.22728,48,519.2523,98,0.017089844,-0.0024414063,48.682346,21.329153,1280,491.75427,3.725117,33.333336,79.22728
604.45605, ,-0.1875,79.237045,48,519.2523,98,0.009765625,-0.0073242188,48.682346,21.329153,1280,491.75427,3.725117,33.333336,79.237045
604.46, ,-0.1875,79.237045,48,519.2523,98,0.009765625,-0.0073242188,48.682346,21.329153,1280,491.75427,3.725117,33.333336,79.237045
604.46405, ,-0.1875,79.237045,48,519.2523,98,0.009765625,-0.0073242188,48.682346,21.329153,1280,491.75427,3.725117,33.333336,79.237045
604.468, ,-0.1875,79.24193,48,519.2523,98,0.0048828125,-0.0048828125,48.682346,21.329153,1280,491.75427,3.725117,33.333336,79.24193
604.47205, ,-0.1875,79.24193,48,519.4665,98,0.0048828125,-0.0048828125,48.682346,21.329153,1280,491.75427,3.725117,33.333336,79.24193
604.476, ,-0.1875,79.24193,48,519.2523,98,0.0048828125,-0.0048828125,48.682346,21.329153,1280,491.75427,3.725117,33.333336,79.24193
604.48004, ,-0.1875,79.24925,48,519.4665,98,0.0073242188,0.0024414063,48.682346,21.329153,1280,491.75427,3.725117,33.333336,79.24925
604.484, ,-0.1875,79.24925,48,519.4665,98,0.0073242188,0.0024414063,48.682346,21.329153,1280,491.75427,3.725117,33.333336,79.24925
604.48804, ,-0.1875,79.24925,48,519.2523,98,0.0073242188,0.0024414063,48.682346,21.329153,1280,491.75427,3.725117,33.333336,79.24925
604.492, ,-0.1875,79.24925,48,519.4665,98,0.0073242188,0.0024414063,48.682346,21.329153,1280,491.75427,3.725117,33.333336,79.24925
604.49603, ,-0.1875,79.273674,48,519.2523,98,0.024421692,0.017089844,48.682346,21.329153,1280,491.75427,3.725117,33.333336,79.273674
604.5, ,-0.1875,79.273674,48,519.4665,98,0.024421692,0.017089844,48.682346,21.329153,1280,491.75427,3.725117,33.333336,79.273674
604.504, ,-0.1875,79.273674,48,519.4665,98,0.024421692,0.017089844,48.682346,21.329153,1280,491.75427,3.725117,33.333336,79.273674
604.50806, ,-0.1875,79.31518,48,519.2523,98,0.041503906,0.017074585,48.682346,21.329153,1280,491.75427,3.725117,33.333336,79.31518
604.512, ,-0.1875,79.31518,48,519.2523,98,0.041503906,0.017074585,48.682346,21.329153,1280,491.75427,3.725117,33.333336,79.31518
604.51605, ,-0.1875,79.31518,48,519.2523,98,0.041503906,0.017074585,48.682346,21.329153,1280,491.75427,3.725117,33.333336,79.31518
604.52, ,-0.1875,79.31518,48,519.4665,98,0.041503906,0.017074585,48.682346,21.329153,1280,491.75427,3.725117,33.333336,79.31518
604.52405, ,-0.1875,79.364006,48,519.4665,98,0.048828125,0.0073242188,48.682346,21.329153,1280,491.75427,3.725117,33.333336,79.364006
604.528, ,-0.1875,79.364006,48,519.4665,98,0.048828125,0.0073242188,48.682346,21.329153,1280,491.75427,3.725117,33.333336,79.364006
604.53204, ,-0.1875,79.364006,48,519.2523,98,0.048828125,0.0073242188,48.682346,21.329153,1280,491.75427,3.725117,33.333336,79.364006
604.536, ,-0.1875,79.40795,48,519.2523,98,0.043945313,-0.0048828125,48.682346,21.329153,1280,491.75427,3.725117,33.333336,79.40795
604.54004, ,-0.1875,79.40795,48,519.4665,98,0.043945313,-0.0048828125,48.682346,21.329153,1280,491.75427,3.725117,33.333336,79.40795
604.544, ,-0.1875,79.40795,48,519.4665,98,0.043945313,-0.0048828125,48.682346,21.329153,1280,491.75427,3.725117,33.333336,79.40795
604.54803, ,-0.1875,79.43725,48,519.4665,98,0.029296875,-0.0146484375,48.682346,21.329153,1280,491.75427,3.725117,33.333336,79.43725
604.552, ,-0.1875,79.43725,48,519.2523,98,0.029296875,-0.0146484375,48.682346,21.329153,1280,491.75427,3.725117,33.333336,79.43725
604.556, ,-0.1875,79.43725,48,519.2523,98,0.029296875,-0.0146484375,48.682346,21.329153,1280,491.75427,3.725117,33.333336,79.43725
604.56006, ,-0.1875,79.44213,48,519.2523,98,0.0048828125,-0.024414063,48.682346,21.329153,1280,491.75427,3.725117,33.333336,79.44213
604.564, ,-0.1875,79.44213,48,519.2523,98,0.0048828125,-0.024414063,48.682346,21.329153,1280,491.75427,3.725117,33.333336,79.44213
604.56805, ,-0.1875,79.44213,48,519.2523,98,0.0048828125,-0.024414063,48.682346,21.329153,1280,491.75427,3.725117,33.333336,79.44213
604.572, ,-0.1875,79.44213,48,519.6806,98,0.0048828125,-0.024414063,48.682346,21.329153,1280,491.75427,3.725117,33.333336,79.44213
604.57605, ,-0.1875,79.429924,48,519.4665,98,-0.012207031,-0.017089844,48.682346,21.329153,1280,491.75427,3.725117,33.333336,79.429924
604.58, ,-0.1875,79.429924,48,519.4665,98,-0.012207031,-0.017089844,48.682346,21.329153,1280,491.75427,3.725117,33.333336,79.429924
604.58405, ,-0.1875,79.429924,48,519.4665,98,-0.012207031,-0.017089844,48.682346,21.329153,1280,491.75427,3.725117,33.333336,79.429924
604.588, ,-0.1875,79.415276,48,519.2523,98,-0.0146484375,-0.0024414063,48.682346,21.329153,1280,491.75427,3.725117,33.333336,79.415276
604.59204, ,-0.1875,79.415276,48,519.2523,98,-0.0146484375,-0.0024414063,48.682346,21.329153,1280,491.75427,3.725117,33.333336,79.415276
604.596, ,-0.1875,79.415276,48,519.4665,98,-0.0146484375,-0.0024414063,48.682346,21.329153,1280,491.75427,3.725117,33.333336,79.415276
604.60004, ,-0.1875,79.40795,48,519.2523,98,-0.0073242188,0.0073242188,48.682346,21.329153,1280,491.75427,3.725117,33.333336,79.40795
604.604, ,-0.1875,79.40795,48,519.2523,98,-0.0073242188,0.0073242188,48.682346,21.329153,1280,491.75427,3.725117,33.333336,79.40795
604.60803, ,-0.1875,79.40795,48,519.2523,98,-0.0073242188,0.0073242188,48.682346,21.329153,1280,491.75427,3.725117,33.333336,79.40795
604.612, ,-0.1875,79.40795,48,519.4665,98,-0.0073242188,0.0073242188,48.682346,21.329153,1280,491.75427,3.725117,33.333336,79.40795
604.616, ,-0.1875,79.42016,48,519.2523,98,0.012207031,0.01953125,48.682346,21.329153,1280,491.75427,3.725117,33.333336,79.42016
604.62006, ,-0.1875,79.42016,48,519.2523,98,0.012207031,0.01953125,48.682346,21.329153,1280,491.75427,3.725117,33.333336,79.42016
604.624, ,-0.1875,79.42016,48,519.4665,98,0.012207031,0.01953125,48.682346,21.329153,1280,491.75427,3.725117,33.333336,79.42016
604.62805, ,-0.1875,79.44457,48,519.4665,98,0.024414063,0.012207031,48.682346,21.329153,1280,491.75427,3.725117,33.333336,79.44457
604.632, ,-0.1875,79.44457,48,519.4665,98,0.024414063,0.012207031,48.682346,21.329153,1280,491.75427,3.725117,33.333336,79.44457
604.63605, ,-0.1875,79.44457,48,519.4665,98,0.024414063,0.012207031,48.682346,21.329153,1280,491.75427,3.725117,33.333336,79.44457
604.64, ,-0.1875,79.47143,48,519.2523,98,0.026855469,0.0024414063,48.682346,21.329153,1280,491.75427,3.725117,33.333336,79.47143
604.64404, ,-0.1875,79.47143,48,519.4665,98,0.026855469,0.0024414063,48.682346,21.329153,1280,491.75427,3.725117,33.333336,79.47143
604.648, ,-0.1875,79.47143,48,519.2523,98,0.026855469,0.0024414063,48.682346,21.329153,1280,491.75427,3.725117,33.333336,79.47143
604.65204, ,-0.1875,79.47143,48,519.4665,98,0.026855469,0.0024414063,48.682346,21.329153,1280,491.75427,3.725117,33.333336,79.47143
604.656, ,-0.1875,79.49096,48,519.2523,98,0.01953125,-0.0073242188,48.682346,21.329153,1280,491.75427,3.725117,33.333336,79.49096
604.66003, ,-0.1875,79.49096,48,519.4665,98,0.01953125,-0.0073242188,48.682346,21.329153,1280,491.75427,3.725117,33.333336,79.49096
604.664, ,-0.1875,79.49096,48,519.4665,98,0.01953125,-0.0073242188,48.682346,21.329153,1280,491.75427,3.725117,33.333336,79.49096
604.668, ,-0.1875,79.48852,48,519.4665,98,-0.0024414063,-0.021972656,48.682346,21.329153,1280,491.75427,3.725117,33.333336,79.48852
604.67206, ,-0.1875,79.48852,48,519.4665,98,-0.0024414063,-0.021972656,48.682346,21.329153,1280,491.75427,3.725117,33.333336,79.48852
604.676, ,-0.1875,79.48852,48,519.4665,98,-0.0024414063,-0.021972656,48.682346,21.329153,1280,491.75427,3.725117,33.333336,79.48852
604.68005, ,-0.1875,79.47631,48,519.4665,98,-0.012207031,-0.009765625,48.682346,21.329153,1280,491.75427,3.725117,33.333336,79.47631
604.684, ,-0.1875,79.47631,48,519.2523,98,-0.012207031,-0.009765625,48.682346,21.329153,1280,491.75427,3.725117,33.333336,79.47631
604.68805, ,-0.1875,79.47631,48,519.4665,98,-0.012207031,-0.009765625,48.682346,21.329153,1280,491.75427,3.725117,33.333336,79.47631
604.692, ,-0.1875,79.47631,48,519.2523,98,-0.012207031,-0.009765625,48.682346,21.329153,1280,491.75427,3.725117,33.333336,79.47631
604.69604, ,-0.1875,79.46166,48,519.2523,98,-0.0146484375,-0.0024414063,48.682346,21.329153,1280,491.75427,3.725117,33.333336,79.46166
604.7, ,-0.1875,79.46166,48,519.4665,98,-0.0146484375,-0.0024414063,48.682346,21.329153,1280,491.75427,3.725117,33.333336,79.46166
604.70404, ,-0.1875,79.46166,48,519.4665,98,-0.0146484375,-0.0024414063,48.682346,21.329153,1280,491.75427,3.725117,33.333336,79.46166
604.708, ,-0.1875,79.46899,48,519.4665,98,0.0073242188,0.021972656,48.682346,21.329153,1280,491.75427,3.725117,33.333336,79.46899
604.71204, ,-0.1875,79.46899,48,519.2523,98,0.0073242188,0.021972656,48.682346,21.329153,1280,491.75427,3.725117,33.333336,79.46899
604.716, ,-0.1875,79.46899,48,519.2523,98,0.0073242188,0.021972656,48.682346,21.329153,1280,491.75427,3.725117,33.333336,79.46899
604.72003, ,-0.1875,79.51293,48,519.2523,98,0.043945313,0.036621094,48.682346,21.329153,1280,491.75427,3.725117,33.333336,79.51293
604.724, ,-0.1875,79.51293,48,519.4665,98,0.043945313,0.036621094,48.682346,21.329153,1280,491.75427,3.725117,33.333336,79.51293
604.728, ,-0.1875,79.51293,48,519.4665,98,0.043945313,0.036621094,48.682346,21.329153,1280,491.75427,3.725117,33.333336,79.51293
604.73206, ,-0.1875,79.51293,48,519.4665,98,0.043945313,0.036621094,48.682346,21.329153,1280,491.75427,3.725117,33.333336,79.51293
604.736, ,-0.1875,79.62524,48,519.2523,98,0.11230469,0.068359375,48.682346,21.329153,1280,491.75427,3.725117,33.333336,79.62524
604.74005, ,-0.1875,79.62524,48,519.2523,98,0.11230469,0.068359375,48.682346,21.329153,1280,491.75427,3.725117,33.333336,79.62524
604.744, ,-0.1875,79.62524,48,519.2523,98,0.11230469,0.068359375,48.682346,21.329153,1280,491.75427,3.725117,33.333336,79.62524
604.74805, ,-0.1875,79.80347,48,519.2523,98,0.17823029,0.06593323,48.682346,21.329153,1280,491.75427,3.725117,33.333336,79.80347
604.752, ,-0.1875,79.80347,48,519.4665,98,0.17823029,0.06593323,48.682346,21.329153,1280,491.75427,3.725117,33.333336,79.80347
604.75604, ,-0.1875,79.80347,48,519.2523,98,0.17823029,0.06593323,48.682346,21.329153,1280,491.75427,3.725117,33.333336,79.80347
604.76, ,-0.1875,80.04761,48,519.4665,98,0.24414063,0.06591797,48.682346,21.329153,1280,491.75427,3.725117,33.333336,80.04761
604.76404, ,-0.1875,80.04761,48,519.4665,98,0.24414063,0.06591797,48.682346,21.329153,1280,491.75427,3.725117,33.333336,80.04761
604.768, ,-0.1875,80.04761,48,519.2523,98,0.24414063,0.06591797,48.682346,21.329153,1280,491.75427,3.725117,33.333336,80.04761
604.77203, ,-0.1875,80.04761,48,519.4665,98,0.24414063,0.06591797,48.682346,21.329153,1280,491.75427,3.725117,33.333336,80.04761
604.776, ,-0.1875,80.33082,48,519.2523,98,0.28321075,0.0390625,48.682346,21.329153,1280,491.75427,3.725117,33.333336,80.33082
604.78, ,-0.1875,80.33082,48,519.2523,98,0.28321075,0.0390625,48.682346,21.329153,1280,491.75427,3.725117,33.333336,80.33082
604.78406, ,-0.1875,80.33082,48,519.4665,98,0.28321075,0.0390625,48.682346,21.329153,1280,491.75427,3.725117,33.333336,80.33082
604.788, ,-0.1875,80.63111,48,519.4665,98,0.30029297,0.017074585,48.682346,21.329153,1280,491.75427,3.725117,33.333336,80.63111
604.79205, ,-0.1875,80.63111,48,519.4665,98,0.30029297,0.017074585,48.682346,21.329153,1280,491.75427,3.725117,33.333336,80.63111
604.796, ,-0.1875,80.63111,48,519.4665,98,0.30029297,0.017074585,48.682346,21.329153,1280,491.75427,3.725117,33.333336,80.63111
604.80005, ,-0.1875,80.63111,48,519.4665,98,0.30029297,0.017074585,48.682346,21.329153,1280,491.75427,3.725117,33.333336,80.63111
604.804, ,-0.1875,80.91432,48,519.2523,98,0.28321075,-0.017074585,48.682346,21.329153,1280,491.75427,3.725117,33.333336,80.91432
604.80804, ,-0.1875,80.91432,48,519.4665,98,0.28321075,-0.017074585,48.682346,21.329153,1280,491.75427,3.725117,33.333336,80.91432
604.812, ,-0.1875,80.91432,48,519.2523,98,0.28321075,-0.017074585,48.682346,21.329153,1280,491.75427,3.725117,33.333336,80.91432
604.81604, ,-0.1875,81.15358,48,519.2523,98,0.23925781,-0.043945313,48.682346,21.329153,1280,491.75427,3.725117,33.333336,81.15358
604.82, ,-0.1875,81.15358,48,519.4665,98,0.23925781,-0.043945313,48.682346,21.329153,1280,491.75427,3.725117,33.333336,81.15358
604.82404, ,-0.1875,81.15358,48,519.2523,98,0.23925781,-0.043945313,48.682346,21.329153,1280,491.75427,3.725117,33.333336,81.15358
604.828, ,-0.1875,81.32937,48,519.4665,98,0.17578888,-0.06347656,48.682346,21.329153,1280,491.75427,3.725117,33.333336,81.32937
604.83203, ,-0.1875,81.32937,48,519.4665,98,0.17578888,-0.06347656,48.682346,21.329153,1280,491.75427,3.725117,33.333336,81.32937
604.836, ,-0.1875,81.32937,48,519.2523,98,0.17578888,-0.06347656,48.682346,21.329153,1280,491.75427,3.725117,33.333336,81.32937
604.84, ,-0.1875,81.32937,48,519.4665,98,0.17578888,-0.06347656,48.682346,21.329153,1280,491.75427,3.725117,33.333336,81.32937
604.84406, ,-0.1875,81.43923,48,519.4665,98,0.10986328,-0.06593323,48.682346,21.329153,1280,491.75427,3.725117,33.333336,81.43923
604.848, ,-0.1875,81.43923,48,519.4665,98,0.10986328,-0.06593323,48.682346,21.329153,1280,491.75427,3.725117,33.333336,81.43923
604.85205, ,-0.1875,81.43923,48,519.4665,98,0.10986328,-0.06593323,48.682346,21.329153,1280,491.75427,3.725117,33.333336,81.43923
604.856, ,-0.1875,81.4905,48,519.2523,98,0.05126953,-0.05859375,48.682346,21.329153,1280,491.75427,3.725117,33.333336,81.4905
604.86005, ,-0.1875,81.4905,48,519.4665,98,0.05126953,-0.05859375,48.682346,21.329153,1280,491.75427,3.725117,33.333336,81.4905
604.864, ,-0.1875,81.4905,48,519.4665,98,0.05126953,-0.05859375,48.682346,21.329153,1280,491.75427,3.725117,33.333336,81.4905
604.86804, ,-0.1875,81.497826,48,519.4665,98,0.0073242188,-0.043945313,46.559196,-8.648747,1293.3334,476.9088,1.1862088,22.222223,79.78172
604.872, ,-0.1875,81.497826,48,519.2523,98,0.0073242188,-0.043945313,46.559196,-8.648747,1293.3334,476.9088,1.1862088,22.222223,79.78172
604.87604, ,-0.1875,81.497826,48,519.4665,98,0.0073242188,-0.043945313,46.559196,-8.648747,1293.3334,476.9088,1.1862088,22.222223,79.78172
604.88, ,-0.1875,81.497826,48,519.6806,98,0.0073242188,-0.043945313,46.559196,-8.648747,1293.3334,476.9088,1.1862088,22.222223,79.78172
604.88403, ,-0.1875,81.48562,48,519.4665,98,-0.012207031,-0.01953125,46.559196,-8.648747,1293.3334,476.9088,1.1862088,22.222223,80.00528
604.888, ,-0.1875,81.48562,48,519.4665,98,-0.012207031,-0.01953125,46.559196,-8.648747,1293.3334,476.9088,1.1862088,22.222223,80.00528
604.892, ,-0.1875,81.48562,48,519.4665,98,-0.012207031,-0.01953125,46.559196,-8.648747,1293.3334,476.9088,1.1862088,22.222223,80.00528
604.89606, ,-0.1875,81.478294,48,519.2523,98,-0.0073242188,0.0048828125,46.559196,-8.648747,1293.3334,476.9088,1.1862088,22.222223,80.28202
604.9, ,-0.1875,81.478294,48,519.4665,98,-0.0073242188,0.0048828125,46.559196,-8.648747,1293.3334,476.9088,1.1862088,22.222223,80.28202
604.90405, ,-0.1875,81.478294,48,519.4665,98,-0.0073242188,0.0048828125,46.559196,-8.648747,1293.3334,476.9088,1.1862088,22.222223,80.28202
604.908, ,-0.1875,81.48562,48,519.4665,98,0.0073242188,0.0146484375,46.559196,-8.648747,1293.3334,476.9088,1.1862088,22.222223,80.60013
604.91205, ,-0.1875,81.48562,48,519.4665,98,0.0073242188,0.0146484375,46.559196,-8.648747,1293.3334,476.9088,1.1862088,22.222223,80.60013
604.916, ,-0.1875,81.48562,48,519.4665,98,0.0073242188,0.0146484375,46.559196,-8.648747,1293.3334,476.9088,1.1862088,22.222223,80.60013
604.92004, ,-0.1875,81.512474,48,519.4665,98,0.026855469,0.01953125,46.559196,-8.648747,1293.3334,476.9088,1.1862088,22.222223,80.93603
604.924, ,-0.1875,81.512474,48,519.2523,98,0.026855469,0.01953125,46.559196,-8.648747,1293.3334,476.9088,1.1862088,22.222223,80.93603
604.92804, ,-0.1875,81.512474,48,519.4665,98,0.026855469,0.01953125,46.559196,-8.648747,1293.3334,476.9088,1.1862088,22.222223,80.93603
604.932, ,-0.1875,81.512474,48,519.4665,98,0.026855469,0.01953125,46.559196,-8.648747,1293.3334,476.9088,1.1862088,22.222223,80.93603
604.93604, ,-0.1875,81.55154,48,519.4665,98,0.0390625,0.012207031,46.559196,-8.648747,1293.3334,476.9088,1.1862088,22.222223,81.25947
604.94, ,-0.1875,81.55154,48,519.2523,98,0.0390625,0.012207031,46.559196,-8.648747,1293.3334,476.9088,1.1862088,22.222223,81.25947
604.94403, ,-0.1875,81.55154,48,519.4665,98,0.0390625,0.012207031,46.559196,-8.648747,1293.3334,476.9088,1.1862088,22.222223,81.25947
604.94806, ,-0.1875,81.59304,48,519.4665,98,0.041503906,0.0024414063,46.559196,-8.648747,1293.3334,476.9088,1.1862088,22.222223,81.53463
604.952, ,-0.1875,81.59304,48,519.4665,98,0.041503906,0.0024414063,46.559196,-8.648747,1293.3334,476.9088,1.1862088,22.222223,81.53463
604.95605, ,-0.1875,81.59304,48,519.2523,98,0.041503906,0.0024414063,46.559196,-8.648747,1293.3334,476.9088,1.1862088,22.222223,81.53463
604.96, ,-0.1875,81.59304,48,519.4665,98,0.041503906,0.0024414063,46.559196,-8.648747,1293.3334,476.9088,1.1862088,22.222223,81.53463
604.96405, ,-0.1875,81.61257,48,519.2523,98,0.01953125,-0.021972656,46.559196,-8.648747,1293.3334,476.9088,1.1862088,22.222223,81.71919
604.968, ,-0.1875,81.61257,48,519.2523,98,0.01953125,-0.021972656,46.559196,-8.648747,1293.3334,476.9088,1.1862088,22.222223,81.71919
604.97205, ,-0.1875,81.61257,48,519.4665,98,0.01953125,-0.021972656,46.559196,-8.648747,1293.3334,476.9088,1.1862088,22.222223,81.71919
604.976, ,-0.1875,81.602806,48,519.4665,98,-0.009765625,-0.029296875,46.559196,-8.648747,1293.3334,476.9088,1.1862088,22.222223,81.79239
604.98004, ,-0.1875,81.602806,48,519.4665,98,-0.009765625,-0.029296875,46.559196,-8.648747,1293.3334,476.9088,1.1862088,22.222223,81.79239
604.984, ,-0.1875,81.602806,48,519.4665,98,-0.009765625,-0.029296875,46.559196,-8.648747,1293.3334,476.9088,1.1862088,22.222223,81.79239
604.98804, ,-0.1875,81.55398,48,519.2523,98,-0.048828125,-0.0390625,46.559196,-8.648747,1293.3334,476.9088,1.1862088,22.222223,81.7393
604.992, ,-0.1875,81.55398,48,519.4665,98,-0.048828125,-0.0390625,46.559196,-8.648747,1293.3334,476.9088,1.1862088,22.222223,81.7393
604.99603, ,-0.1875,81.55398,48,519.2523,98,-0.048828125,-0.0390625,46.559196,-8.648747,1293.3334,476.9088,1.1862088,22.222223,81.7393
605, ,-0.1875,81.46853,48,519.2523,98,-0.08544922,-0.036621094,46.559196,-8.648747,1293.3334,476.9088,1.1862088,22.222223,81.58962
605.004, ,-0.1875,81.46853,48,519.4665,98,-0.08544922,-0.036621094,46.559196,-8.648747,1293.3334,476.9088,1.1862088,22.222223,81.58962
605.00806, ,-0.1875,81.46853,48,519.4665,98,-0.08544922,-0.036621094,46.559196,-8.648747,1293.3334,476.9088,1.1862088,22.222223,81.58962
605.012, ,-0.1875,81.46853,48,519.4665,98,-0.08544922,-0.036621094,46.559196,-8.648747,1293.3334,476.9088,1.1862088,22.222223,81.58962
605.01605, ,-0.1875,81.3489,48,519.4665,98,-0.119628906,-0.034179688,46.559196,-8.648747,1293.3334,476.9088,1.1862088,22.222223,81.40234
605.02, ,-0.1875,81.3489,48,519.4665,98,-0.119628906,-0.034179688,46.559196,-8.648747,1293.3334,476.9088,1.1862088,22.222223,81.40234
605.02405, ,-0.1875,81.3489,48,519.4665,98,-0.119628906,-0.034179688,46.559196,-8.648747,1293.3334,476.9088,1.1862088,22.222223,81.40234
605.028, ,-0.1875,81.20485,48,519.4665,98,-0.1440506,-0.024429321,46.559196,-8.648747,1293.3334,476.9088,1.1862088,22.222223,81.220665
605.03204, ,-0.1875,81.20485,48,519.4665,98,-0.1440506,-0.024429321,46.559196,-8.648747,1293.3334,476.9088,1.1862088,22.222223,81.220665
605.036, ,-0.1875,81.20485,48,519.4665,98,-0.1440506,-0.024429321,46.559196,-8.648747,1293.3334,476.9088,1.1862088,22.222223,81.220665
605.04004, ,-0.1875,81.04616,48,519.2523,98,-0.1586914,-0.0146484375,46.559196,-8.648747,1293.3334,476.9088,1.1862088,22.222223,81.04933
605.044, ,-0.1875,81.04616,48,519.4665,98,-0.1586914,-0.0146484375,46.559196,-8.648747,1293.3334,476.9088,1.1862088,22.222223,81.04933
605.04803, ,-0.1875,81.04616,48,519.4665,98,-0.1586914,-0.0146484375,46.559196,-8.648747,1293.3334,476.9088,1.1862088,22.222223,81.04933
605.052, ,-0.1875,81.04616,48,519.2523,98,-0.1586914,-0.0146484375,46.559196,-8.648747,1293.3334,476.9088,1.1862088,22.222223,81.04933
605.056, ,-0.1875,80.885025,48,519.4665,98,-0.16113281,-0.0024414063,46.559196,-8.648747,1293.3334,476.9088,1.1862088,22.222223,80.88545
605.06006, ,-0.1875,80.885025,48,519.2523,98,-0.16113281,-0.0024414063,46.559196,-8.648747,1293.3334,476.9088,1.1862088,22.222223,80.88545
605.064, ,-0.1875,80.885025,48,519.2523,98,-0.16113281,-0.0024414063,46.559196,-8.648747,1293.3334,476.9088,1.1862088,22.222223,80.88545
605.06805, ,-0.1875,80.73365,48,519.2523,98,-0.15137482,0.009765625,46.559196,-8.648747,1293.3334,476.9088,1.1862088,22.222223,80.73369
605.072, ,-0.1875,80.73365,48,519.4665,98,-0.15137482,0.009765625,46.559196,-8.648747,1293.3334,476.9088,1.1862088,22.222223,80.73369
605.07605, ,-0.1875,80.73365,48,519.2523,98,-0.15137482,0.009765625,46.559196,-8.648747,1293.3334,476.9088,1.1862088,22.222223,80.73369
605.08, ,-0.1875,80.601814,48,519.4665,98,-0.13183594,0.019546509,46.559196,-8.648747,1293.3334,476.9088,1.1862088,22.222223,80.601814
605.08405, ,-0.1875,80.601814,48,519.4665,98,-0.13183594,0.019546509,46.559196,-8.648747,1293.3334,476.9088,1.1862088,22.222223,80.601814
605.088, ,-0.1875,80.601814,48,519.4665,98,-0.13183594,0.019546509,46.559196,-8.648747,1293.3334,476.9088,1.1862088,22.222223,80.601814
605.09204, ,-0.1875,80.601814,48,519.2523,98,-0.13183594,0.019546509,46.559196,-8.648747,1293.3334,476.9088,1.1862088,22.222223,80.601814
605.096, ,-0.1875,80.49439,48,519.4665,98,-0.107421875,0.024414063,46.559196,-8.648747,1293.3334,476.9088,1.1862088,22.222223,80.49439
605.10004, ,-0.1875,80.49439,48,519.4665,98,-0.107421875,0.024414063,46.559196,-8.648747,1293.3334,476.9088,1.1862088,22.222223,80.49439
605.104, ,-0.1875,80.49439,48,519.4665,98,-0.107421875,0.024414063,46.559196,-8.648747,1293.3334,476.9088,1.1862088,22.222223,80.49439
605.10803, ,-0.1875,80.41627,48,519.4665,98,-0.078125,0.029296875,46.559196,-8.648747,1293.3334,476.9088,1.1862088,22.222223,79.473625
605.112, ,-0.1875,80.41627,48,519.4665,98,-0.078125,0.029296875,46.559196,-8.648747,1293.3334,476.9088,1.1862088,22.222223,79.473625
605.116, ,-0.1875,80.41627,48,519.4665,98,-0.078125,0.029296875,46.559196,-8.648747,1293.3334,476.9088,1.1862088,22.222223,79.473625
605.12006, ,-0.1875,80.35279,48,519.4665,98,-0.06347656,0.0146484375,46.559196,-8.648747,1293.3334,476.9088,1.1862088,22.222223,79.476814
605.124, ,-0.1875,80.35279,48,519.4665,98,-0.06347656,0.0146484375,46.559196,-8.648747,1293.3334,476.9088,1.1862088,22.222223,79.476814
605.12805, ,-0.1875,80.35279,48,519.2523,98,-0.06347656,0.0146484375,46.559196,-8.648747,1293.3334,476.9088,1.1862088,22.222223,79.476814
605.132, ,-0.1875,80.35279,48,519.4665,98,-0.06347656,0.0146484375,46.559196,-8.648747,1293.3334,476.9088,1.1862088,22.222223,79.476814
605.13605, ,-0.1875,80.29908,48,519.2523,98,-0.053710938,0.009765625,46.559196,-8.648747,1293.3334,476.9088,1.1862088,22.222223,79.52293
605.14, ,-0.1875,80.29908,48,519.2523,98,-0.053710938,0.009765625,46.559196,-8.648747,1293.3334,476.9088,1.1862088,22.222223,79.52293
605.14404, ,-0.1875,80.29908,48,519.2523,98,-0.053710938,0.009765625,46.559196,-8.648747,1293.3334,476.9088,1.1862088,22.222223,79.52293
605.148, ,-0.1875,80.24292,48,519.2523,98,-0.056159973,-0.002456665,46.559196,-8.648747,1293.3334,476.9088,1.1862088,22.222223,79.59453
605.15204, ,-0.1875,80.24292,48,519.2523,98,-0.056159973,-0.002456665,46.559196,-8.648747,1293.3334,476.9088,1.1862088,22.222223,79.59453
605.156, ,-0.1875,80.24292,48,519.2523,98,-0.056159973,-0.002456665,46.559196,-8.648747,1293.3334,476.9088,1.1862088,22.222223,79.59453
605.16003, ,-0.1875,80.24292,48,519.4665,98,-0.056159973,-0.002456665,46.559196,-8.648747,1293.3334,476.9088,1.1862088,22.222223,79.59453
605.164, ,-0.1875,80.18677,48,519.2523,98,-0.056152344,0,46.559196,-8.648747,1293.3334,476.9088,1.1862088,22.222223,79.683266
605.168, ,-0.1875,80.18677,48,519.2523,98,-0.056152344,0,46.559196,-8.648747,1293.3334,476.9088,1.1862088,22.222223,79.683266
605.17206, ,-0.1875,80.18677,48,519.4665,98,-0.056152344,0,46.559196,-8.648747,1293.3334,476.9088,1.1862088,22.222223,79.683266
605.176, ,-0.1875,80.13306,48,519.4665,98,-0.053710938,0.0024414063,46.559196,-8.648747,1293.3334,476.9088,1.1862088,22.222223,79.78111
605.18005, ,-0.1875,80.13306,48,519.4665,98,-0.053710938,0.0024414063,46.559196,-8.648747,1293.3334,476.9088,1.1862088,22.222223,79.78111
605.184, ,-0.1875,80.13306,48,519.4665,98,-0.053710938,0.0024414063,46.559196,-8.648747,1293.3334,476.9088,1.1862088,22.222223,79.78111
605.18805, ,-0.1875,80.08179,48,519.6806,98,-0.05126953,0.0024414063,46.559196,-8.648747,1293.3334,476.9088,1.1862088,22.222223,79.874275
605.192, ,-0.1875,80.08179,48,519.4665,98,-0.05126953,0.0024414063,46.559196,-8.648747,1293.3334,476.9088,1.1862088,22.222223,79.874275
605.19604, ,-0.1875,80.08179,48,519.4665,98,-0.05126953,0.0024414063,46.559196,-8.648747,1293.3334,476.9088,1.1862088,22.222223,79.874275
605.2, ,-0.1875,80.03052,48,519.4665,98,-0.05126953,0,46.559196,-8.648747,1293.3334,476.9088,1.1862088,22.222223,79.94962
605.20404, ,-0.1875,80.03052,48,519.4665,98,-0.05126953,0,46.559196,-8.648747,1293.3334,476.9088,1.1862088,22.222223,79.94962
605.208, ,-0.1875,80.03052,48,519.4665,98,-0.05126953,0,46.559196,-8.648747,1293.3334,476.9088,1.1862088,22.222223,79.94962
605.21204, ,-0.1875,80.03052,48,519.4665,98,-0.05126953,0,46.559196,-8.648747,1293.3334,476.9088,1.1862088,22.222223,79.94962
605.216, ,-0.1875,79.974365,48,519.2523,98,-0.056152344,-0.0048828125,46.559196,-8.648747,1293.3334,476.9088,1.1862088,22.222223,79.990685
605.22003, ,-0.1875,79.974365,48,519.4665,98,-0.056152344,-0.0048828125,46.559196,-8.648747,1293.3334,476.9088,1.1862088,22.222223,79.990685
605.224, ,-0.1875,79.974365,48,519.2523,98,-0.056152344,-0.0048828125,46.559196,-8.648747,1293.3334,476.9088,1.1862088,22.222223,79.990685
605.228, ,-0.1875,79.91821,48,519.2523,98,-0.056152344,0,46.559196,-8.648747,1293.3334,476.9088,1.1862088,22.222223,79.995125
605.23206, ,-0.1875,79.91821,48,519.4665,98,-0.056152344,0,46.559196,-8.648747,1293.3334,476.9088,1.1862088,22.222223,79.995125
605.236, ,-0.1875,79.91821,48,519.2523,98,-0.056152344,0,46.559196,-8.648747,1293.3334,476.9088,1.1862088,22.222223,79.995125
605.24005, ,-0.1875,79.85718,47,519.2523,98,-0.061035156,-0.0048828125,46.559196,-8.648747,1293.3334,476.9088,1.1862088,22.222223,79.95253
605.244, ,-0.1875,79.85718,47,519.4665,98,-0.061035156,-0.0048828125,46.559196,-8.648747,1293.3334,476.9088,1.1862088,22.222223,79.95253
605.24805, ,-0.1875,79.85718,47,519.2523,98,-0.061035156,-0.0048828125,46.559196,-8.648747,1293.3334,476.9088,1.1862088,22.222223,79.95253
605.252, ,-0.1875,79.85718,47,519.4665,98,-0.061035156,-0.0048828125,46.559196,-8.648747,1293.3334,476.9088,1.1862088,22.222223,79.95253
605.25604, ,-0.1875,79.79614,47,519.4665,98,-0.061035156,0,46.559196,-8.648747,1293.3334,476.9088,1.1862088,22.222223,79.872185
605.26, ,-0.1875,79.79614,47,519.4665,98,-0.061035156,0,46.559196,-8.648747,1293.3334,476.9088,1.1862088,22.222223,79.872185
605.26404, ,-0.1875,79.79614,47,519.4665,98,-0.061035156,0,46.559196,-8.648747,1293.3334,476.9088,1.1862088,22.222223,79.872185
605.268, ,-0.1875,79.744865,47,519.2523,98,-0.05127716,0.009765625,46.559196,-8.648747,1293.3334,476.9088,1.1862088,22.222223,79.78563
605.27203, ,-0.1875,79.744865,47,519.4665,98,-0.05127716,0.009765625,46.559196,-8.648747,1293.3334,476.9088,1.1862088,22.222223,79.78563
605.276, ,-0.1875,79.744865,47,519.4665,98,-0.05127716,0.009765625,46.559196,-8.648747,1293.3334,476.9088,1.1862088,22.222223,79.78563
605.28, ,-0.1875,79.69848,47,519.2523,98,-0.04638672,0.0048980713,46.559196,-8.648747,1293.3334,476.9088,1.1862088,22.222223,79.71325
605.28406, ,-0.1875,79.69848,47,519.2523,98,-0.04638672,0.0048980713,46.559196,-8.648747,1293.3334,476.9088,1.1862088,22.222223,79.71325
605.288, ,-0.1875,79.69848,47,519.4665,98,-0.04638672,0.0048980713,46.559196,-8.648747,1293.3334,476.9088,1.1862088,22.222223,79.71325
605.29205, ,-0.1875,79.69848,47,519.2523,98,-0.04638672,0.0048980713,46.559196,-8.648747,1293.3334,476.9088,1.1862088,22.222223,79.71325
605.296, ,-0.1875,79.65453,47,519.4665,98,-0.043945313,0.0024414063,46.559196,-8.648747,1293.3334,476.9088,1.1862088,22.222223,79.65812
605.30005, ,-0.1875,79.65453,47,519.4665,98,-0.043945313,0.0024414063,46.559196,-8.648747,1293.3334,476.9088,1.1862088,22.222223,79.65812
605.304, ,-0.1875,79.65453,47,519.2523,98,-0.043945313,0.0024414063,46.559196,-8.648747,1293.3334,476.9088,1.1862088,22.222223,79.65812
605.30804, ,-0.1875,79.60815,47,519.4665,98,-0.04638672,-0.0024414063,46.559196,-8.648747,1293.3334,476.9088,1.1862088,22.222223,79.608734
605.312, ,-0.1875,79.60815,47,519.4665,98,-0.04638672,-0.0024414063,46.559196,-8.648747,1293.3334,476.9088,1.1862088,22.222223,79.608734
605.31604, ,-0.1875,79.60815,47,519.2523,98,-0.04638672,-0.0024414063,46.559196,-8.648747,1293.3334,476.9088,1.1862088,22.222223,79.608734
605.32, ,-0.1875,79.554436,47,519.4665,98,-0.053710938,-0.0073242188,46.559196,-8.648747,1293.3334,476.9088,1.1862088,22.222223,79.554504
605.32404, ,-0.1875,79.554436,47,519.2523,98,-0.053710938,-0.0073242188,46.559196,-8.648747,1293.3334,476.9088,1.1862088,22.222223,79.554504
605.328, ,-0.1875,79.554436,47,519.4665,98,-0.053710938,-0.0073242188,46.559196,-8.648747,1293.3334,476.9088,1.1862088,22.222223,79.554504
605.33203, ,-0.1875,79.554436,47,519.2523,98,-0.053710938,-0.0073242188,46.559196,-8.648747,1293.3334,476.9088,1.1862088,22.222223,79.554504
605.336, ,-0.1875,79.49096,47,519.4665,98,-0.06347656,-0.009765625,46.559196,-8.648747,1293.3334,476.9088,1.1862088,22.222223,79.49097
605.34, ,-0.1875,79.49096,47,519.4665,98,-0.06347656,-0.009765625,46.559196,-8.648747,1293.3334,476.9088,1.1862088,22.222223,79.49097
605.34406, ,-0.1875,79.49096,47,519.4665,98,-0.06347656,-0.009765625,46.559196,-8.648747,1293.3334,476.9088,1.1862088,22.222223,79.49097
605.348, ,-0.1875,79.42748,47,519.4665,98,-0.06347656,0,46.559196,-8.648747,1293.3334,476.9088,1.1862088,22.222223,79.42748
605.35205, ,-0.1875,79.42748,47,519.4665,98,-0.06347656,0,46.559196,-8.648747,1293.3334,476.9088,1.1862088,22.222223,79.42748
605.356, ,-0.1875,79.42748,47,519.6806,98,-0.06347656,0,46.559196,-8.648747,1293.3334,476.9088,1.1862088,22.222223,79.42748
605.36005, ,-0.1875,79.36889,47,519.4665,98,-0.05859375,0.0048828125,46.559196,-8.648747,1293.3334,476.9088,1.1862088,22.222223,79.36889
605.364, ,-0.1875,79.36889,47,519.4665,98,-0.05859375,0.0048828125,46.559196,-8.648747,1293.3334,476.9088,1.1862088,22.222223,79.36889
605.36804, ,-0.1875,79.36889,47,519.4665,98,-0.05859375,0.0048828125,46.559196,-8.648747,1293.3334,476.9088,1.1862088,22.222223,79.36889
605.372, ,-0.1875,79.36889,47,519.2523,98,-0.05859375,0.0048828125,46.559196,-8.648747,1293.3334,476.9088,1.1862088,22.222223,79.36889
605.37604, ,-0.1875,79.32494,47,519.4665,98,-0.043945313,0.0146484375,46.559196,-8.648747,1293.3334,476.9088,1.1862088,22.222223,79.32494
605.38, ,-0.1875,79.32494,47,519.4665,98,-0.043945313,0.0146484375,46.559196,-8.648747,1293.3334,476.9088,1.1862088,22.222223,79.32494
605.38403, ,-0.1875,79.32494,47,519.4665,98,-0.043945313,0.0146484375,46.559196,-8.648747,1293.3334,476.9088,1.1862088,22.222223,79.32494
605.388, ,-0.1875,79.29809,47,519.2523,98,-0.026855469,0.017089844,46.559196,-8.648747,1293.3334,476.9088,1.1862088,22.222223,79.29809
605.392, ,-0.1875,79.29809,47,519.2523,98,-0.026855469,0.017089844,46.559196,-8.648747,1293.3334,476.9088,1.1862088,22.222223,79.29809
605.39606, ,-0.1875,79.29809,47,519.4665,98,-0.026855469,0.017089844,46.559196,-8.648747,1293.3334,476.9088,1.1862088,22.222223,79.29809
605.4, ,-0.1875,79.28588,47,519.4665,98,-0.012207031,0.0146484375,46.559196,-8.648747,1293.3334,476.9088,1.1862088,22.222223,79.28588
605.40405, ,-0.1875,79.28588,47,519.4665,98,-0.012207031,0.0146484375,46.559196,-8.648747,1293.3334,476.9088,1.1862088,22.222223,79.28588
605.408, ,-0.1875,79.28588,47,519.4665,98,-0.012207031,0.0146484375,46.559196,-8.648747,1293.3334,476.9088,1.1862088,22.222223,79.28588
605.41205, ,-0.1875,79.28588,47,519.2523,98,-0.012207031,0.0146484375,46.559196,-8.648747,1293.3334,476.9088,1.1862088,22.222223,79.28588
605.416, ,-0.1875,79.28588,47,519.4665,98,0,0.012207031,46.559196,-8.648747,1293.3334,476.9088,1.1862088,22.222223,79.28588
605.42004, ,-0.1875,79.28588,47,519.2523,98,0,0.012207031,46.559196,-8.648747,1293.3334,476.9088,1.1862088,22.222223,79.28588
605.424, ,-0.1875,79.28588,47,519.4665,98,0,0.012207031,46.559196,-8.648747,1293.3334,476.9088,1.1862088,22.222223,79.28588
605.42804, ,-0.1875,79.28832,47,519.4665,98,0.0024414063,0.0024414063,46.559196,-8.648747,1293.3334,476.9088,1.1862088,22.222223,79.28832
605.432, ,-0.1875,79.28832,47,519.4665,98,0.0024414063,0.0024414063,46.559196,-8.648747,1293.3334,476.9088,1.1862088,22.222223,79.28832
605.43604, ,-0.1875,79.28832,47,519.4665,98,0.0024414063,0.0024414063,46.559196,-8.648747,1293.3334,476.9088,1.1862088,22.222223,79.28832
605.44, ,-0.1875,79.28344,47,519.2523,98,-0.0048828125,-0.0073242188,46.559196,-8.648747,1293.3334,476.9088,1.1862088,22.222223,79.28344
605.44403, ,-0.1875,79.28344,47,519.4665,98,-0.0048828125,-0.0073242188,46.559196,-8.648747,1293.3334,476.9088,1.1862088,22.222223,79.28344
605.44806, ,-0.1875,79.28344,47,519.4665,98,-0.0048828125,-0.0073242188,46.559196,-8.648747,1293.3334,476.9088,1.1862088,22.222223,79.28344
605.452, ,-0.1875,79.28344,47,519.4665,98,-0.0048828125,-0.0073242188,46.559196,-8.648747,1293.3334,476.9088,1.1862088,22.222223,79.28344
605.45605, ,-0.1875,79.27123,47,519.4665,98,-0.012207031,-0.0073242188,46.559196,-8.648747,1293.3334,476.9088,1.1862088,22.222223,79.27123
605.46, ,-0.1875,79.27123,47,519.2523,98,-0.012207031,-0.0073242188,46.559196,-8.648747,1293.3334,476.9088,1.1862088,22.222223,79.27123
605.46405, ,-0.1875,79.27123,47,519.4665,98,-0.012207031,-0.0073242188,46.559196,-8.648747,1293.3334,476.9088,1.1862088,22.222223,79.27123
605.468, ,-0.1875,79.256584,47,519.4665,98,-0.0146484375,-0.0024414063,46.559196,-8.648747,1293.3334,476.9088,1.1862088,22.222223,79.256584
605.47205, ,-0.1875,79.256584,47,519.2523,98,-0.0146484375,-0.0024414063,46.559196,-8.648747,1293.3334,476.9088,1.1862088,22.222223,79.256584
605.476, ,-0.1875,79.256584,47,519.4665,98,-0.0146484375,-0.0024414063,46.559196,-8.648747,1293.3334,476.9088,1.1862088,22.222223,79.256584
605.48004, ,-0.1875,79.24193,47,519.4665,98,-0.014656067,-1.53E-05,46.559196,-8.648747,1293.3334,476.9088,1.1862088,22.222223,79.24193
605.484, ,-0.1875,79.24193,47,519.2523,98,-0.014656067,-1.53E-05,46.559196,-8.648747,1293.3334,476.9088,1.1862088,22.222223,79.24193
605.48804, ,-0.1875,79.24193,47,519.4665,98,-0.014656067,-1.53E-05,46.559196,-8.648747,1293.3334,476.9088,1.1862088,22.222223,79.24193
605.492, ,-0.1875,79.24193,47,519.2523,98,-0.014656067,-1.53E-05,46.559196,-8.648747,1293.3334,476.9088,1.1862088,22.222223,79.24193
605.49603, ,-0.1875,79.23216,47,519.6806,98,-0.009765625,0.0048828125,46.559196,-8.648747,1293.3334,476.9088,1.1862088,22.222223,79.23216
605.5, ,-0.1875,79.23216,47,519.2523,98,-0.009765625,0.0048828125,46.559196,-8.648747,1293.3334,476.9088,1.1862088,22.222223,79.23216
605.504, ,-0.1875,79.23216,47,519.4665,98,-0.009765625,0.0048828125,46.559196,-8.648747,1293.3334,476.9088,1.1862088,22.222223,79.23216
605.50806, ,-0.1875,79.22728,47,519.4665,98,-0.0048828125,0.0048828125,46.559196,-8.648747,1293.3334,476.9088,1.1862088,22.222223,79.22728
605.512, ,-0.1875,79.22728,47,519.4665,98,-0.0048828125,0.0048828125,46.559196,-8.648747,1293.3334,476.9088,1.1862088,22.222223,79.22728
605.51605, ,-0.1875,79.22728,47,519.6806,98,-0.0048828125,0.0048828125,46.559196,-8.648747,1293.3334,476.9088,1.1862088,22.222223,79.22728
605.52, ,-0.1875,79.22972,47,519.2523,98,0.0024414063,0.0073242188,46.559196,-8.648747,1293.3334,476.9088,1.1862088,22.222223,79.22972
605.52405, ,-0.1875,79.22972,47,519.4665,98,0.0024414063,0.0073242188,46.559196,-8.648747,1293.3334,476.9088,1.1862088,22.222223,79.22972
605.528, ,-0.1875,79.22972,47,519.2523,98,0.0024414063,0.0073242188,46.559196,-8.648747,1293.3334,476.9088,1.1862088,22.222223,79.22972
605.53204, ,-0.1875,79.22972,47,519.6806,98,0.0024414063,0.0073242188,46.559196,-8.648747,1293.3334,476.9088,1.1862088,22.222223,79.22972
605.536, ,-0.1875,79.23949,47,519.4665,98,0.009765625,0.0073242188,46.559196,-8.648747,1293.3334,476.9088,1.1862088,22.222223,79.23949
605.54004, ,-0.1875,79.23949,47,519.4665,98,0.009765625,0.0073242188,46.559196,-8.648747,1293.3334,476.9088,1.1862088,22.222223,79.23949
605.544, ,-0.1875,79.23949,47,519.4665,98,0.009765625,0.0073242188,46.559196,-8.648747,1293.3334,476.9088,1.1862088,22.222223,79.23949
605.54803, ,-0.1875,79.24681,47,519.4665,98,0.0073242188,-0.0024414063,46.559196,-8.648747,1293.3334,476.9088,1.1862088,22.222223,79.24681
605.552, ,-0.1875,79.24681,47,519.4665,98,0.0073242188,-0.0024414063,46.559196,-8.648747,1293.3334,476.9088,1.1862088,22.222223,79.24681
605.556, ,-0.1875,79.24681,47,519.2523,98,0.0073242188,-0.0024414063,46.559196,-8.648747,1293.3334,476.9088,1.1862088,22.222223,79.24681
605.56006, ,-0.1875,79.25414,47,519.4665,98,0.007331848,0,46.559196,-8.648747,1293.3334,476.9088,1.1862088,22.222223,79.25414
605.564, ,-0.1875,79.25414,47,519.2523,98,0.007331848,0,46.559196,-8.648747,1293.3334,476.9088,1.1862088,22.222223,79.25414
605.56805, ,-0.1875,79.25414,47,519.4665,98,0.007331848,0,46.559196,-8.648747,1293.3334,476.9088,1.1862088,22.222223,79.25414
605.572, ,-0.1875,79.25414,47,519.4665,98,0.007331848,0,46.559196,-8.648747,1293.3334,476.9088,1.1862088,22.222223,79.25414
605.57605, ,-0.1875,79.25414,47,519.2523,98,0,-0.0073394775,46.559196,-8.648747,1293.3334,476.9088,1.1862088,22.222223,79.25414
605.58, ,-0.1875,79.25414,47,519.4665,98,0,-0.0073394775,46.559196,-8.648747,1293.3334,476.9088,1.1862088,22.222223,79.25414
605.58405, ,-0.1875,79.25414,47,519.4665,98,0,-0.0073394775,46.559196,-8.648747,1293.3334,476.9088,1.1862088,22.222223,79.25414
605.588, ,-0.1875,79.2517,47,519.2523,98,-0.0024414063,-0.0024414063,46.559196,-8.648747,1293.3334,476.9088,1.1862088,22.222223,79.2517
605.59204, ,-0.1875,79.2517,47,519.4665,98,-0.0024414063,-0.0024414063,46.559196,-8.648747,1293.3334,476.9088,1.1862088,22.222223,79.2517
605.596, ,-0.1875,79.2517,47,519.4665,98,-0.0024414063,-0.0024414063,46.559196,-8.648747,1293.3334,476.9088,1.1862088,22.222223,79.2517
605.60004, ,-0.1875,79.24437,47,519.4665,98,-0.007331848,-0.0048980713,46.559196,-8.648747,1293.3334,476.9088,1.1862088,22.222223,79.24437
605.604, ,-0.1875,79.24437,47,519.2523,98,-0.007331848,-0.0048980713,46.559196,-8.648747,1293.3334,476.9088,1.1862088,22.222223,79.24437
605.60803, ,-0.1875,79.24437,47,519.4665,98,-0.007331848,-0.0048980713,46.559196,-8.648747,1293.3334,476.9088,1.1862088,22.222223,79.24437
605.612, ,-0.1875,79.24437,47,519.2523,98,-0.007331848,-0.0048980713,46.559196,-8.648747,1293.3334,476.9088,1.1862088,22.222223,79.24437
605.616, ,-0.1875,79.234604,47,519.4665,98,-0.009765625,-0.0024414063,46.559196,-8.648747,1293.3334,476.9088,1.1862088,22.222223,79.234604
605.62006, ,-0.1875,79.234604,47,519.4665,98,-0.009765625,-0.0024414063,46.559196,-8.648747,1293.3334,476.9088,1.1862088,22.222223,79.234604
605.624, ,-0.1875,79.234604,47,519.2523,98,-0.009765625,-0.0024414063,46.559196,-8.648747,1293.3334,476.9088,1.1862088,22.222223,79.234604
605.62805, ,-0.1875,79.234604,47,519.4665,98,-0.009765625,-0.0024414063,46.559196,-8.648747,1293.3334,476.9088,1.1862088,22.222223,79.234604
605.632, ,-0.1875,79.234604,47,519.4665,98,0,0.009765625,46.559196,-8.648747,1293.3334,476.9088,1.1862088,22.222223,79.234604
605.63605, ,-0.1875,79.234604,47,519.4665,98,0,0.009765625,46.559196,-8.648747,1293.3334,476.9088,1.1862088,22.222223,79.234604
605.64, ,-0.1875,79.24681,47,519.4665,98,0,0.009765625,46.559196,-8.648747,1293.3334,476.9088,1.1862088,22.222223,79.234604
605.64404, ,-0.1875,79.24681,47,519.4665,98,0.012207031,0.012207031,46.559196,-8.648747,1293.3334,476.9088,1.1862088,22.222223,79.24681
605.648, ,-0.1875,79.24681,47,519.4665,98,0.012207031,0.012207031,46.559196,-8.648747,1293.3334,476.9088,1.1862088,22.222223,79.24681
605.65204, ,-0.1875,79.24681,47,519.4665,98,0.012207031,0.012207031,46.559196,-8.648747,1293.3334,476.9088,1.1862088,22.222223,79.24681
605.656, ,-0.1875,79.26635,47,519.2523,98,0.01953888,0.0073242188,46.559196,-8.648747,1293.3334,476.9088,1.1862088,22.222223,79.26635
605.66003, ,-0.1875,79.26635,47,519.4665,98,0.01953888,0.0073242188,46.559196,-8.648747,1293.3334,476.9088,1.1862088,22.222223,79.26635
605.664, ,-0.1875,79.26635,47,519.4665,98,0.01953888,0.0073242188,46.559196,-8.648747,1293.3334,476.9088,1.1862088,22.222223,79.26635
605.668, ,-0.1875,79.29565,47,519.4665,98,0.029296875,0.009750366,46.559196,-8.648747,1293.3334,476.9088,1.1862088,22.222223,79.29565
605.67206, ,-0.1875,79.29565,47,519.4665,98,0.029296875,0.009750366,46.559196,-8.648747,1293.3334,476.9088,1.1862088,22.222223,79.29565
605.676, ,-0.1875,79.29565,47,519.4665,98,0.029296875,0.009750366,46.559196,-8.648747,1293.3334,476.9088,1.1862088,22.222223,79.29565
605.68005, ,-0.1875,79.3225,47,519.2523,98,0.026855469,-0.0024414063,46.559196,-8.648747,1293.3334,476.9088,1.1862088,22.222223,79.3225
605.684, ,-0.1875,79.3225,47,519.2523,98,0.026855469,-0.0024414063,46.559196,-8.648747,1293.3334,476.9088,1.1862088,22.222223,79.3225
605.68805, ,-0.1875,79.3225,47,519.4665,98,0.026855469,-0.0024414063,46.559196,-8.648747,1293.3334,476.9088,1.1862088,22.222223,79.3225
605.692, ,-0.1875,79.3225,47,519.2523,98,0.026855469,-0.0024414063,46.559196,-8.648747,1293.3334,476.9088,1.1862088,22.222223,79.3225
605.69604, ,-0.1875,79.344475,47,519.2523,98,0.021972656,-0.0048828125,46.559196,-8.648747,1293.3334,476.9088,1.1862088,22.222223,79.344475
605.7, ,-0.1875,79.344475,47,519.2523,98,0.021972656,-0.0048828125,46.559196,-8.648747,1293.3334,476.9088,1.1862088,22.222223,79.344475
605.70404, ,-0.1875,79.344475,47,519.2523,98,0.021972656,-0.0048828125,46.559196,-8.648747,1293.3334,476.9088,1.1862088,22.222223,79.344475
605.708, ,-0.1875,79.35912,47,519.2523,98,0.0146484375,-0.0073242188,46.559196,-8.648747,1293.3334,476.9088,1.1862088,22.222223,79.35912
605.71204, ,-0.1875,79.35912,47,519.4665,98,0.0146484375,-0.0073242188,46.559196,-8.648747,1293.3334,476.9088,1.1862088,22.222223,79.35912
605.716, ,-0.1875,79.35912,47,519.2523,98,0.0146484375,-0.0073242188,46.559196,-8.648747,1293.3334,476.9088,1.1862088,22.222223,79.35912
605.72003, ,-0.1875,79.36645,47,519.4665,98,0.0073242188,-0.0073242188,46.559196,-8.648747,1293.3334,476.9088,1.1862088,22.222223,79.36645
605.724, ,-0.1875,79.36645,47,519.4665,98,0.0073242188,-0.0073242188,46.559196,-8.648747,1293.3334,476.9088,1.1862088,22.222223,79.36645
605.728, ,-0.1875,79.36645,47,519.4665,98,0.0073242188,-0.0073242188,46.559196,-8.648747,1293.3334,476.9088,1.1862088,22.222223,79.36645
605.73206, ,-0.1875,79.36645,47,519.4665,98,0.0073242188,-0.0073242188,46.559196,-8.648747,1293.3334,476.9088,1.1862088,22.222223,79.36645
605.736, ,-0.1875,79.36645,47,519.4665,98,0,-0.0073242188,46.559196,-8.648747,1293.3334,476.9088,1.1862088,22.222223,79.36645
605.74005, ,-0.1875,79.36645,47,519.2523,98,0,-0.0073242188,46.559196,-8.648747,1293.3334,476.9088,1.1862088,22.222223,79.36645
605.744, ,-0.1875,79.36645,47,519.2523,98,0,-0.0073242188,46.559196,-8.648747,1293.3334,476.9088,1.1862088,22.222223,79.36645
605.74805, ,-0.1875,79.364006,47,519.4665,98,-0.0024414063,-0.0024414063,46.559196,-8.648747,1293.3334,476.9088,1.1862088,22.222223,79.364006
605.752, ,-0.1875,79.364006,47,519.6806,98,-0.0024414063,-0.0024414063,46.559196,-8.648747,1293.3334,476.9088,1.1862088,22.222223,79.364006
605.75604, ,-0.1875,79.364006,47,519.2523,98,-0.0024414063,-0.0024414063,46.559196,-8.648747,1293.3334,476.9088,1.1862088,22.222223,79.364006
605.76, ,-0.1875,79.364006,47,519.4665,98,-0.0024414063,-0.0024414063,46.559196,-8.648747,1293.3334,476.9088,1.1862088,22.222223,79.364006
605.76404, ,-0.1875,79.364006,47,519.4665,98,0,0.0024414063,46.559196,-8.648747,1293.3334,476.9088,1.1862088,22.222223,79.364006
605.768, ,-0.1875,79.364006,47,519.2523,98,0,0.0024414063,46.559196,-8.648747,1293.3334,476.9088,1.1862088,22.222223,79.364006
605.77203, ,-0.1875,79.364006,47,519.2523,98,0,0.0024414063,46.559196,-8.648747,1293.3334,476.9088,1.1862088,22.222223,79.364006
605.776, ,-0.1875,79.37133,47,519.4665,98,0.0073242188,0.0073242188,46.559196,-8.648747,1293.3334,476.9088,1.1862088,22.222223,79.37133
605.78, ,-0.1875,79.37133,47,519.2523,98,0.0073242188,0.0073242188,46.559196,-8.648747,1293.3334,476.9088,1.1862088,22.222223,79.37133
605.78406, ,-0.1875,79.37133,47,519.4665,98,0.0073242188,0.0073242188,46.559196,-8.648747,1293.3334,476.9088,1.1862088,22.222223,79.37133
605.788, ,-0.1875,79.378654,47,519.2523,98,0.0073242188,0,46.559196,-8.648747,1293.3334,476.9088,1.1862088,22.222223,79.378654
605.79205, ,-0.1875,79.378654,47,519.4665,98,0.0073242188,0,46.559196,-8.648747,1293.3334,476.9088,1.1862088,22.222223,79.378654
605.796, ,-0.1875,79.378654,47,519.4665,98,0.0073242188,0,46.559196,-8.648747,1293.3334,476.9088,1.1862088,22.222223,79.378654
605.80005, ,-0.1875,79.378654,47,519.4665,98,0.0073242188,0,46.559196,-8.648747,1293.3334,476.9088,1.1862088,22.222223,79.378654
605.804, ,-0.1875,79.39086,47,519.4665,98,0.012207031,0.0048828125,46.559196,-8.648747,1293.3334,476.9088,1.1862088,22.222223,79.39086
605.80804, ,-0.1875,79.39086,47,519.2523,98,0.012207031,0.0048828125,46.559196,-8.648747,1293.3334,476.9088,1.1862088,22.222223,79.39086
605.812, ,-0.1875,79.39086,47,519.4665,98,0.012207031,0.0048828125,46.559196,-8.648747,1293.3334,476.9088,1.1862088,22.222223,79.39086
605.81604, ,-0.1875,79.40063,47,519.4665,98,0.009765625,-0.0024414063,46.559196,-8.648747,1293.3334,476.9088,1.1862088,22.222223,79.40063
605.82, ,-0.1875,79.40063,47,519.4665,98,0.009765625,-0.0024414063,46.559196,-8.648747,1293.3334,476.9088,1.1862088,22.222223,79.40063
605.82404, ,-0.1875,79.40063,47,519.2523,98,0.009765625,-0.0024414063,46.559196,-8.648747,1293.3334,476.9088,1.1862088,22.222223,79.40063
605.828, ,-0.1875,79.412834,47,519.4665,98,0.012207031,0.0024414063,46.559196,-8.648747,1293.3334,476.9088,1.1862088,22.222223,79.412834
605.83203, ,-0.1875,79.412834,47,519.2523,98,0.012207031,0.0024414063,46.559196,-8.648747,1293.3334,476.9088,1.1862088,22.222223,79.412834
605.836, ,-0.1875,79.412834,47,519.4665,98,0.012207031,0.0024414063,46.559196,-8.648747,1293.3334,476.9088,1.1862088,22.222223,79.412834
605.84, ,-0.1875,79.412834,47,519.4665,98,0.012207031,0.0024414063,46.559196,-8.648747,1293.3334,476.9088,1.1862088,22.222223,79.412834
605.84406, ,-0.1875,79.4226,47,519.4665,98,0.009765625,-0.0024414063,46.559196,-8.648747,1293.3334,476.9088,1.1862088,22.222223,79.4226
605.848, ,-0.1875,79.4226,47,519.2523,98,0.009765625,-0.0024414063,46.559196,-8.648747,1293.3334,476.9088,1.1862088,22.222223,79.4226
605.85205, ,-0.1875,79.4226,47,519.4665,98,0.009765625,-0.0024414063,46.559196,-8.648747,1293.3334,476.9088,1.1862088,22.222223,79.4226
605.856, ,-0.1875,79.432365,47,519.2523,98,0.009765625,0,46.559196,-8.648747,1293.3334,476.9088,1.1862088,22.222223,79.432365
