PPG PulseOx1, RIPResp1, Heart Rate PulseOx1, Temperature Sensor 1, RIPResp2, SpO2 PulseOx1, Pulse d(Trace)/dt, Pulse d2(Trace)/dt2, Pulse Rate (BPM), d(Pulse Rate)/dt (BPMPM), Pulse Interval (ms), Pulse RMSSD (ms), Pulse SDNN (BPM), Pulse P50 (%), Smoothed RIP Resp1, Smoothed RIP Resp2, Breathing Rate (BPM), d(Breathing Rate)/dt (BPMPM), Interval (s), Inspiration (%), d(Inspiration)/dt (%PM), Breathing RMSSD (s), Breathing SDNN (BPM)
76.84932,-0.018516228,61,23.966816,-0.012029171,98,-0.017089844,-0.036621094,56.23473,-47.11464,1019.24884,42.06223,3.644034,11.111112,-0.01744811,-0.011082061,19.77014,16.365133,1.7937491,52.876938,53.114193,1.7766696,11.305182
76.81514,-0.0145242065,61,24.03445,-0.008138806,98,-0.034179688,-0.017089844,56.23473,-47.11464,1019.24884,42.06223,3.644034,11.111112,-0.017453386,-0.011086943,19.77014,16.365133,1.7937491,52.876938,53.114193,1.7766696,11.305182
76.81514,-0.014883488,61,23.966816,-0.008603722,98,-0.034179688,-0.017089844,56.23473,-47.11464,1019.24884,42.06223,3.644034,11.111112,-0.017449513,-0.011082843,19.77014,16.365133,1.7937491,52.876938,53.114193,1.7766696,11.305182
76.81514,-0.018564038,61,24.011908,-0.012285568,98,-0.034179688,-0.017089844,56.23473,-47.11464,1019.24884,42.06223,3.644034,11.111112,-0.01743979,-0.011073447,19.77014,16.365133,1.7937491,52.876938,53.114193,1.7766696,11.305182
76.78584,-0.020733297,61,24.03445,-0.014333524,98,-0.029296875,0.0048828125,56.23473,-47.11464,1019.24884,42.06223,3.644034,11.111112,-0.017444251,-0.011078158,19.77014,16.365133,1.7937491,52.876938,53.114193,1.7766696,11.305182
76.78584,-0.018586032,61,23.94427,-0.012100875,98,-0.029296875,0.0048828125,56.23473,-47.11464,1019.24884,42.06223,3.644034,11.111112,-0.017458213,-0.011092499,19.77014,16.365133,1.7937491,52.876938,53.114193,1.7766696,11.305182
76.78584,-0.014563568,61,23.966816,-0.008180335,98,-0.029296875,0.0048828125,56.23473,-47.11464,1019.24884,42.06223,3.644034,11.111112,-0.017466085,-0.011100805,19.77014,16.365133,1.7937491,52.876938,53.114193,1.7766696,11.305182
76.78584,-0.014857516,61,24.011908,-0.008580521,98,-0.029296875,0.0048828125,56.23473,-47.11464,1019.24884,42.06223,3.644034,11.111112,-0.01746089,-0.011096165,19.77014,16.365133,1.7937491,52.876938,53.114193,1.7766696,11.305182
76.81026,-0.018501185,61,23.966816,-0.012228437,98,0.024414063,0.053710938,56.23473,-47.11464,1019.24884,42.06223,3.644034,11.111112,-0.01744832,-0.011084738,19.77014,16.365133,1.7937491,52.876938,53.114193,1.7766696,11.305182
76.81026,-0.020730056,61,23.989363,-0.014336072,98,0.024414063,0.053710938,56.23473,-47.11464,1019.24884,42.06223,3.644034,11.111112,-0.01744767,-0.011085249,19.77014,16.365133,1.7937491,52.876938,53.114193,1.7766696,11.305182
76.81026,-0.01861377,61,23.966816,-0.012132995,98,0.024414063,0.053710938,56.23473,-47.11464,1019.24884,42.06223,3.644034,11.111112,-0.01745322,-0.011091672,19.77014,16.365133,1.7937491,52.876938,53.114193,1.7766696,11.305182
76.946976,-0.014568485,61,23.92172,-0.008189812,98,0.13671875,0.11230469,56.23473,-47.11464,1019.24884,42.06223,3.644034,11.111112,-0.017454203,-0.011093567,19.77014,16.365133,1.7937491,52.876938,53.114193,1.7766696,11.305182
76.946976,-0.014804967,61,24.03445,-0.008533403,98,0.13671875,0.11230469,56.23473,-47.11464,1019.24884,42.06223,3.644034,11.111112,-0.017443692,-0.011084144,19.77014,16.365133,1.7937491,52.876938,53.114193,1.7766696,11.305182
76.946976,-0.018428273,61,23.989363,-0.012163259,98,0.13671875,0.11230469,56.23473,-47.11464,1019.24884,42.06223,3.644034,11.111112,-0.017429112,-0.011071108,19.77014,16.365133,1.7937491,52.876938,53.114193,1.7766696,11.305182
77.21065,-0.020710252,61,23.94427,-0.014324136,98,0.26367188,0.12695313,56.23473,-47.11464,1019.24884,42.06223,3.644034,11.111112,-0.01742515,-0.011068721,19.77014,16.365133,1.7937491,52.876938,53.114193,1.7766696,11.305182
77.21065,-0.018637374,61,24.011908,-0.012164287,98,0.26367188,0.12695313,56.23473,-47.11464,1019.24884,42.06223,3.644034,11.111112,-0.017429871,-0.01107498,19.77014,16.365133,1.7937491,52.876938,53.114193,1.7766696,11.305182
77.21065,-0.014570095,61,23.94427,-0.008198082,98,0.26367188,0.12695313,56.23473,-47.11464,1019.24884,42.06223,3.644034,11.111112,-0.017430192,-0.011076634,19.77014,16.365133,1.7937491,52.876938,53.114193,1.7766696,11.305182
77.21065,-0.014755614,61,23.966816,-0.008491248,98,0.26367188,0.12695313,56.23473,-47.11464,1019.24884,42.06223,3.644034,11.111112,-0.017420322,-0.011068203,19.77014,16.365133,1.7937491,52.876938,53.114193,1.7766696,11.305182
77.63058,-0.018330865,61,24.079538,-0.012075238,98,0.4199295,0.15625,56.23473,-47.11464,1019.24884,42.06223,3.644034,11.111112,-0.01740084,-0.011050599,19.77014,16.365133,1.7937491,52.876938,53.114193,1.7766696,11.305182
77.63058,-0.020675339,61,23.94427,-0.014298767,98,0.4199295,0.15625,56.23473,-47.11464,1019.24884,42.06223,3.644034,11.111112,-0.017393857,-0.011045525,19.77014,16.365133,1.7937491,52.876938,53.114193,1.7766696,11.305182
77.63058,-0.018655881,61,23.966816,-0.012192227,98,0.4199295,0.15625,56.23473,-47.11464,1019.24884,42.06223,3.644034,11.111112,-0.017397558,-0.011051113,19.77014,16.365133,1.7937491,52.876938,53.114193,1.7766696,11.305182
78.260475,-0.0145654455,61,23.989363,-0.008203156,98,0.6298981,0.2099762,56.23473,-47.11464,1019.24884,42.06223,3.644034,11.111112,-0.017396629,-0.011052127,19.77014,16.365133,1.7937491,52.876938,53.114193,1.7766696,11.305182
78.260475,-0.014687218,61,23.94427,-0.0084328875,98,0.6298981,0.2099762,56.23473,-47.11464,1019.24884,42.06223,3.644034,11.111112,-0.01738295,-0.011040456,19.77014,16.365133,1.7937491,52.876938,53.114193,1.7766696,11.305182
78.260475,-0.018226929,61,24.03445,-0.01198516,98,0.6298981,0.2099762,56.23473,-47.11464,1019.24884,42.06223,3.644034,11.111112,-0.017362162,-0.01102244,19.77014,16.365133,1.7937491,52.876938,53.114193,1.7766696,11.305182
79.10033,-0.020633385,61,23.989363,-0.014270045,98,0.8398514,0.20994568,56.23473,-47.11464,1019.24884,42.06223,3.644034,11.111112,-0.017353771,-0.011016696,19.77014,16.365133,1.7937491,52.876938,53.114193,1.7766696,11.305182
79.10033,-0.018638715,61,23.92172,-0.012186907,98,0.8398514,0.20994568,56.23473,-47.11464,1019.24884,42.06223,3.644034,11.111112,-0.017350338,-0.011015631,19.77014,16.365133,1.7937491,52.876938,53.114193,1.7766696,11.305182
79.10033,-0.01452034,61,24.011908,-0.008168846,98,0.8398514,0.20994568,56.23473,-47.11464,1019.24884,42.06223,3.644034,11.111112,-0.017341318,-0.011008769,19.77014,16.365133,1.7937491,52.876938,53.114193,1.7766696,11.305182
80.11597,-0.014588244,61,23.94427,-0.008345179,98,1.0156403,0.17578125,56.23473,-47.11464,1019.24884,42.06223,3.644034,11.111112,-0.017321523,-0.010991228,19.77014,16.365133,1.7937491,52.876938,53.114193,1.7766696,11.305182
80.11597,-0.0181012,61,23.989363,-0.011872977,98,1.0156403,0.17578125,56.23473,-47.11464,1019.24884,42.06223,3.644034,11.111112,-0.017296378,-0.010968791,19.77014,16.365133,1.7937491,52.876938,53.114193,1.7766696,11.305182
80.11597,-0.020566486,61,24.03445,-0.014215708,98,1.0156403,0.17578125,56.23473,-47.11464,1019.24884,42.06223,3.644034,11.111112,-0.017282998,-0.010957924,19.77014,16.365133,1.7937491,52.876938,53.114193,1.7766696,11.305182
80.11597,-0.018622331,61,23.966816,-0.0121824145,98,1.0156403,0.17578125,56.23473,-47.11464,1019.24884,42.06223,3.644034,11.111112,-0.01727972,-0.010957025,19.77014,16.365133,1.7937491,52.876938,53.114193,1.7766696,11.305182
81.25857,-0.014500849,61,23.94427,-0.0081605315,98,1.142601,0.12695313,56.23473,-47.11464,1019.24884,42.06223,3.644034,11.111112,-0.017275823,-0.010955363,19.77014,16.365133,1.7937491,52.876938,53.114193,1.7766696,11.305182
81.25857,-0.014511913,61,24.03445,-0.0082811415,98,1.142601,0.12695313,56.23473,-47.11464,1019.24884,42.06223,3.644034,11.111112,-0.017260557,-0.010942555,19.77014,16.365133,1.7937491,52.876938,53.114193,1.7766696,11.305182
81.25857,-0.01798895,61,23.966816,-0.011774048,98,1.142601,0.12695313,56.23473,-47.11464,1019.24884,42.06223,3.644034,11.111112,-0.017238107,-0.010922769,19.77014,16.365133,1.7937491,52.876938,53.114193,1.7766696,11.305182
82.40116,-0.020511433,61,23.989363,-0.014174625,98,1.1425934,-1.5258789E-05,56.23473,-47.11464,1019.24884,42.06223,3.644034,11.111112,-0.017227096,-0.010914552,19.77014,16.365133,1.7937491,52.876938,53.114193,1.7766696,11.305182
82.40116,-0.018616565,61,24.011908,-0.01219064,98,1.1425934,-1.5258789E-05,56.23473,-47.11464,1019.24884,42.06223,3.644034,11.111112,-0.017225942,-0.010916198,19.77014,16.365133,1.7937491,52.876938,53.114193,1.7766696,11.305182
82.40116,-0.014477424,61,23.92172,-0.008150496,98,1.1425934,-1.5258789E-05,56.23473,-47.11464,1019.24884,42.06223,3.644034,11.111112,-0.017221257,-0.010914191,19.77014,16.365133,1.7937491,52.876938,53.114193,1.7766696,11.305182
83.38262,-0.014432207,61,23.989363,-0.008215092,98,0.9814606,-0.16113281,56.23473,-47.11464,1019.24884,42.06223,3.644034,11.111112,-0.017205317,-0.010900981,19.77014,16.365133,1.7937491,52.876938,53.114193,1.7766696,11.305182
83.38262,-0.017872185,61,24.056995,-0.011674225,98,0.9814606,-0.16113281,56.23473,-47.11464,1019.24884,42.06223,3.644034,11.111112,-0.017181963,-0.010881016,19.77014,16.365133,1.7937491,52.876938,53.114193,1.7766696,11.305182
83.38262,-0.020453095,61,23.966816,-0.014133029,98,0.9814606,-0.16113281,56.23473,-47.11464,1019.24884,42.06223,3.644034,11.111112,-0.017170295,-0.0108726965,19.77014,16.365133,1.7937491,52.876938,53.114193,1.7766696,11.305182
83.38262,-0.01859238,61,23.966816,-0.012182973,98,0.9814606,-0.16113281,56.23473,-47.11464,1019.24884,42.06223,3.644034,11.111112,-0.017165458,-0.010871164,19.77014,16.365133,1.7937491,52.876938,53.114193,1.7766696,11.305182
84.09064,-0.014444992,61,23.966816,-0.00813324,98,0.70801544,-0.27345276,56.23473,-47.11464,1019.24884,42.06223,3.644034,11.111112,-0.017158972,-0.010867712,19.77014,16.365133,1.7937491,52.876938,53.114193,1.7766696,11.305182
84.09064,-0.014339335,61,23.94427,-0.008138314,98,0.70801544,-0.27345276,56.23473,-47.11464,1019.24884,42.06223,3.644034,11.111112,-0.017140398,-0.010852356,19.77014,16.365133,1.7937491,52.876938,53.114193,1.7766696,11.305182
84.09064,-0.017746523,61,24.03445,-0.011568122,98,0.70801544,-0.27345276,56.23473,-47.11464,1019.24884,42.06223,3.644034,11.111112,-0.017115265,-0.010831135,19.77014,16.365133,1.7937491,52.876938,53.114193,1.7766696,11.305182
84.48371,-0.020380184,61,23.966816,-0.014079452,98,0.39307404,-0.3149414,56.23473,-47.11464,1019.24884,42.06223,3.644034,11.111112,-0.017100682,-0.01082042,19.77014,16.365133,1.7937491,52.876938,53.114193,1.7766696,11.305182
84.48371,-0.018561311,61,23.92172,-0.012171194,98,0.39307404,-0.3149414,56.23473,-47.11464,1019.24884,42.06223,3.644034,11.111112,-0.017094469,-0.010818064,19.77014,16.365133,1.7937491,52.876938,53.114193,1.7766696,11.305182
84.48371,-0.014404714,61,24.011908,-0.008112051,98,0.39307404,-0.3149414,56.23473,-47.11464,1019.24884,42.06223,3.644034,11.111112,-0.017086415,-0.010813827,19.77014,16.365133,1.7937491,52.876938,53.114193,1.7766696,11.305182
84.58137,-0.014244027,61,23.966816,-0.008064486,98,0.09765625,-0.29542542,56.23473,-47.11464,1019.24884,42.06223,3.644034,11.111112,-0.017067352,-0.010799061,19.77014,16.365133,1.7937491,52.876938,53.114193,1.7766696,11.305182
84.58137,-0.017602287,61,23.966816,-0.01144854,98,0.09765625,-0.29542542,56.23473,-47.11464,1019.24884,42.06223,3.644034,11.111112,-0.017038506,-0.010775144,19.77014,16.365133,1.7937491,52.876938,53.114193,1.7766696,11.305182
84.58137,-0.020286866,61,24.03445,-0.014011927,98,0.09765625,-0.29542542,56.23473,-47.11464,1019.24884,42.06223,3.644034,11.111112,-0.017019842,-0.01076164,19.77014,16.365133,1.7937491,52.876938,53.114193,1.7766696,11.305182
84.58137,-0.018514507,61,23.94427,-0.012151502,98,0.09765625,-0.29542542,56.23473,-47.11464,1019.24884,42.06223,3.644034,11.111112,-0.01701048,-0.0107577015,19.77014,16.365133,1.7937491,52.876938,53.114193,1.7766696,11.305182
84.40803,-0.014360301,61,23.94427,-0.008095041,98,-0.17333984,-0.2709961,56.23473,-47.11464,1019.24884,42.06223,3.644034,11.111112,-0.017001597,-0.010754299,19.77014,16.365133,1.7937491,52.876938,53.114193,1.7766696,11.305182
84.40803,-0.014125764,61,24.011908,-0.007975705,98,-0.17333984,-0.2709961,56.23473,-47.11464,1019.24884,42.06223,3.644034,11.111112,-0.016977945,-0.010736543,19.77014,16.365133,1.7937491,52.876938,53.114193,1.7766696,11.305182
84.40803,-0.01744596,61,23.989363,-0.011325449,98,-0.17333984,-0.2709961,56.23473,-47.11464,1019.24884,42.06223,3.644034,11.111112,-0.016946679,-0.010711925,19.77014,16.365133,1.7937491,52.876938,53.114193,1.7766696,11.305182
84.02228,-0.020185791,61,23.966816,-0.013945565,98,-0.38574982,-0.2124176,56.23473,-47.11464,1019.24884,42.06223,3.644034,11.111112,-0.016926466,-0.010698653,19.77014,16.365133,1.7937491,52.876938,53.114193,1.7766696,11.305182
84.02228,-0.018456012,61,24.011908,-0.012129039,98,-0.38574982,-0.2124176,56.23473,-47.11464,1019.24884,42.06223,3.644034,11.111112,-0.016914766,-0.01069416,19.77014,16.365133,1.7937491,52.876938,53.114193,1.7766696,11.305182
84.02228,-0.014286853,61,23.94427,-0.008057781,98,-0.38574982,-0.2124176,56.23473,-47.11464,1019.24884,42.06223,3.644034,11.111112,-0.016900076,-0.010686708,19.77014,16.365133,1.7937491,52.876938,53.114193,1.7766696,11.305182
84.02228,-0.013995208,61,23.966816,-0.007883325,98,-0.38574982,-0.2124176,56.23473,-47.11464,1019.24884,42.06223,3.644034,11.111112,-0.016873965,-0.010668232,19.907816,11.835841,1.3825672,42.24669,2.4562635,1.4293472,11.926187
83.529106,-0.017286949,61,24.03445,-0.011208035,98,-0.4931717,-0.107421875,59.8762,-8.069117,1031.6881,38.901867,2.5971458,11.111112,-0.016842162,-0.010644749,19.907816,11.835841,1.3825672,42.24669,2.4562635,1.4293472,11.926187
83.529106,-0.020073518,61,23.94427,-0.013875939,98,-0.4931717,-0.107421875,59.8762,-8.069117,1031.6881,38.901867,2.5971458,11.111112,-0.016819708,-0.010630824,19.907816,11.835841,1.3825672,42.24669,2.4562635,1.4293472,11.926187
83.529106,-0.01838509,61,23.989363,-0.012100473,98,-0.4931717,-0.107421875,59.8762,-8.069117,1031.6881,38.901867,2.5971458,11.111112,-0.016805524,-0.010625111,19.907816,11.835841,1.3825672,42.24669,2.4562635,1.4293472,11.926187
83.02861,-0.014212646,61,23.966816,-0.008025907,98,-0.5004959,-0.0073242188,59.8762,-8.069117,1031.6881,38.901867,2.5971458,11.111112,-0.016790682,-0.010618736,19.907816,11.835841,1.3825672,42.24669,2.4562635,1.4293472,11.926187
83.02861,-0.013855375,61,23.94427,-0.0077878833,98,-0.5004959,-0.0073242188,59.8762,-8.069117,1031.6881,38.901867,2.5971458,11.111112,-0.016762717,-0.010599648,19.907816,11.835841,1.3825672,42.24669,2.4562635,1.4293472,11.926187
83.02861,-0.01710505,61,24.03445,-0.011072874,98,-0.5004959,-0.0073242188,59.8762,-8.069117,1031.6881,38.901867,2.5971458,11.111112,-0.016726336,-0.010572615,19.907816,11.835841,1.3825672,42.24669,2.4562635,1.4293472,11.926187
82.60868,-0.019943029,61,23.966816,-0.013791695,98,-0.4199295,0.080566406,59.8762,-8.069117,1031.6881,38.901867,2.5971458,11.111112,-0.016700238,-0.0105557665,19.907816,11.835841,1.3825672,42.24669,2.4562635,1.4293472,11.926187
82.60868,-0.018304534,61,23.94427,-0.0120666325,98,-0.4199295,0.080566406,59.8762,-8.069117,1031.6881,38.901867,2.5971458,11.111112,-0.016684128,-0.010548999,19.907816,11.835841,1.3825672,42.24669,2.4562635,1.4293472,11.926187
82.60868,-0.014135845,61,23.989363,-0.007994793,98,-0.4199295,0.080566406,59.8762,-8.069117,1031.6881,38.901867,2.5971458,11.111112,-0.016668767,-0.0105427755,19.907816,11.835841,1.3825672,42.24669,2.4562635,1.4293472,11.926187
82.30595,-0.013720393,61,23.966816,-0.0076988563,98,-0.30273438,0.11720276,59.8762,-8.069117,1031.6881,38.901867,2.5971458,11.111112,-0.016641771,-0.0105249705,19.907816,11.835841,1.3825672,42.24669,2.4562635,1.4293472,11.926187
82.30595,-0.016924046,61,23.966816,-0.010940038,98,-0.30273438,0.11720276,59.8762,-8.069117,1031.6881,38.901867,2.5971458,11.111112,-0.016605569,-0.010498404,19.907816,11.835841,1.3825672,42.24669,2.4562635,1.4293472,11.926187
82.30595,-0.019815221,61,24.056995,-0.0137122795,98,-0.30273438,0.11720276,59.8762,-8.069117,1031.6881,38.901867,2.5971458,11.111112,-0.016580008,-0.01048252,19.907816,11.835841,1.3825672,42.24669,2.4562635,1.4293472,11.926187
82.30595,-0.01821649,61,23.92172,-0.012026623,98,-0.30273438,0.11720276,59.8762,-8.069117,1031.6881,38.901867,2.5971458,11.111112,-0.0165624,-0.010474518,19.907816,11.835841,1.3825672,42.24669,2.4562635,1.4293472,11.926187
82.11063,-0.014041856,61,23.94427,-0.007947251,98,-0.19532013,0.107406616,59.8762,-8.069117,1031.6881,38.901867,2.5971458,11.111112,-0.016543603,-0.01046501,19.907816,11.835841,1.3825672,42.24669,2.4562635,1.4293472,11.926187
82.11063,-0.01356715,61,24.03445,-0.0075928643,98,-0.19532013,0.107406616,59.8762,-8.069117,1031.6881,38.901867,2.5971458,11.111112,-0.016512953,-0.010443811,19.907816,11.835841,1.3825672,42.24669,2.4562635,1.4293472,11.926187
82.11063,-0.016740046,61,23.966816,-0.01080548,98,-0.19532013,0.107406616,59.8762,-8.069117,1031.6881,38.901867,2.5971458,11.111112,-0.016476152,-0.0104169,19.907816,11.835841,1.3825672,42.24669,2.4562635,1.4293472,11.926187
81.94217,-0.019675031,61,23.989363,-0.013621129,98,-0.16845703,0.026855469,59.8762,-8.069117,1031.6881,38.901867,2.5971458,11.111112,-0.016448116,-0.01039867,19.907816,11.835841,1.3825672,42.24669,2.4562635,1.4293472,11.926187
81.94217,-0.018121809,61,24.011908,-0.011980288,98,-0.16845703,0.026855469,59.8762,-8.069117,1031.6881,38.901867,2.5971458,11.111112,-0.016429178,-0.0103894025,19.907816,11.835841,1.3825672,42.24669,2.4562635,1.4293472,11.926187
81.94217,-0.013953276,61,23.92172,-0.0079055205,98,-0.16845703,0.026855469,59.8762,-8.069117,1031.6881,38.901867,2.5971458,11.111112,-0.016411463,-0.010381057,19.907816,11.835841,1.3825672,42.24669,2.4562635,1.4293472,11.926187
81.94217,-0.013416722,61,24.011908,-0.0074905828,98,-0.16845703,0.026855469,59.8762,-8.069117,1031.6881,38.901867,2.5971458,11.111112,-0.016381377,-0.0103606,19.907816,11.835841,1.3825672,42.24669,2.4562635,1.4293472,11.926187
81.739525,-0.016538657,61,24.011908,-0.010655098,98,-0.20264435,-0.034179688,59.8762,-8.069117,1031.6881,38.901867,2.5971458,11.111112,-0.0163411,-0.010330523,19.907816,11.835841,1.3825672,42.24669,2.4562635,1.4293472,11.926187
81.739525,-0.019522928,61,23.94427,-0.013520904,98,-0.20264435,-0.034179688,59.8762,-8.069117,1031.6881,38.901867,2.5971458,11.111112,-0.016310679,-0.0103104785,19.907816,11.835841,1.3825672,42.24669,2.4562635,1.4293472,11.926187
81.739525,-0.018025137,61,24.011908,-0.011936143,98,-0.20264435,-0.034179688,59.8762,-8.069117,1031.6881,38.901867,2.5971458,11.111112,-0.016291345,-0.01030165,19.907816,11.835841,1.3825672,42.24669,2.4562635,1.4293472,11.926187
81.48806,-0.013859287,61,23.966816,-0.007863097,98,-0.25146484,-0.048812866,59.8762,-8.069117,1031.6881,38.901867,2.5971458,11.111112,-0.016272547,-0.010293165,19.907816,11.835841,1.3825672,42.24669,2.4562635,1.4293472,11.926187
81.48806,-0.013256595,61,23.94427,-0.0073839203,98,-0.25146484,-0.048812866,59.8762,-8.069117,1031.6881,38.901867,2.5971458,11.111112,-0.01624052,-0.010271832,19.907816,11.835841,1.3825672,42.24669,2.4562635,1.4293472,11.926187
81.48806,-0.016339704,61,24.079538,-0.010513008,98,-0.25146484,-0.048812866,59.8762,-8.069117,1031.6881,38.901867,2.5971458,11.111112,-0.01620073,-0.010243415,19.907816,11.835841,1.3825672,42.24669,2.4562635,1.4293472,11.926187
81.2195,-0.019372635,61,23.966816,-0.013428368,98,-0.26856232,-0.017105103,59.8762,-8.069117,1031.6881,38.901867,2.5971458,11.111112,-0.016170671,-0.010224908,19.907816,11.835841,1.3825672,42.24669,2.4562635,1.4293472,11.926187
81.2195,-0.017906763,61,23.94427,-0.011876285,98,-0.26856232,-0.017105103,59.8762,-8.069117,1031.6881,38.901867,2.5971458,11.111112,-0.016146997,-0.0102129355,19.907816,11.835841,1.3825672,42.24669,2.4562635,1.4293472,11.926187
81.2195,-0.013745785,61,24.011908,-0.0078064576,98,-0.26856232,-0.017105103,59.8762,-8.069117,1031.6881,38.901867,2.5971458,11.111112,-0.016124297,-0.010201608,19.907816,11.835841,1.3825672,42.24669,2.4562635,1.4293472,11.926187
81.2195,-0.013083614,61,23.966816,-0.00726939,98,-0.26856232,-0.017105103,59.8762,-8.069117,1031.6881,38.901867,2.5971458,11.111112,-0.0160897,-0.010178702,19.907816,11.835841,1.3825672,42.24669,2.4562635,1.4293472,11.926187
80.990005,-0.016132124,61,23.989363,-0.010366939,98,-0.22949219,0.0390625,59.8762,-8.069117,1031.6881,38.901867,2.5971458,11.111112,-0.016048184,-0.010149488,19.907816,11.835841,1.3825672,42.24669,2.4562635,1.4293472,11.926187
80.990005,-0.019205041,61,24.011908,-0.01332318,98,-0.22949219,0.0390625,59.8762,-8.069117,1031.6881,38.901867,2.5971458,11.111112,-0.016014665,-0.010128451,19.907816,11.835841,1.3825672,42.24669,2.4562635,1.4293472,11.926187
80.990005,-0.01778584,61,23.92172,-0.011817411,98,-0.22949219,0.0390625,59.8762,-8.069117,1031.6881,38.901867,2.5971458,11.111112,-0.01599048,-0.010116676,19.907816,11.835841,1.3825672,42.24669,2.4562635,1.4293472,11.926187
80.833755,-0.013643771,61,23.989363,-0.0077638105,98,-0.15625,0.07324219,59.8762,-8.069117,1031.6881,38.901867,2.5971458,11.111112,-0.01597008,-0.010108146,19.907816,11.835841,1.3825672,42.24669,2.4562635,1.4293472,11.926187
80.833755,-0.012915373,61,23.989363,-0.0071610287,98,-0.15625,0.07324219,59.8762,-8.069117,1031.6881,38.901867,2.5971458,11.111112,-0.01593643,-0.010086474,19.907816,11.835841,1.3825672,42.24669,2.4562635,1.4293472,11.926187
80.833755,-0.015912406,61,23.966816,-0.010210991,98,-0.15625,0.07324219,59.8762,-8.069117,1031.6881,38.901867,2.5971458,11.111112,-0.015892487,-0.010055284,19.907816,11.835841,1.3825672,42.24669,2.4562635,1.4293472,11.926187
80.7776,-0.019029535,61,24.03445,-0.013212539,98,-0.056152344,0.100097656,59.8762,-8.069117,1031.6881,38.901867,2.5971458,11.111112,-0.015857385,-0.010033156,19.907816,11.835841,1.3825672,42.24669,2.4562635,1.4293472,11.926187
80.7776,-0.017659195,61,23.966816,-0.011755228,98,-0.056152344,0.100097656,59.8762,-8.069117,1031.6881,38.901867,2.5971458,11.111112,-0.015832057,-0.01002072,19.907816,11.835841,1.3825672,42.24669,2.4562635,1.4293472,11.926187
80.7776,-0.013531454,61,23.92172,-0.0077141672,98,-0.056152344,0.100097656,59.8762,-8.069117,1031.6881,38.901867,2.5971458,11.111112,-0.015809594,-0.010010791,19.907816,11.835841,1.3825672,42.24669,2.4562635,1.4293472,11.926187
80.831314,-0.012733474,61,24.03445,-0.007044375,98,0.053710938,0.10986328,59.8762,-8.069117,1031.6881,38.901867,2.5971458,11.111112,-0.015773213,-0.00998746,19.907816,11.835841,1.3825672,42.24669,2.4562635,1.4293472,11.926187
80.831314,-0.015686989,61,23.966816,-0.010054395,98,0.053710938,0.10986328,59.8762,-8.069117,1031.6881,38.901867,2.5971458,11.111112,-0.01572813,-0.009956141,19.907816,11.835841,1.3825672,42.24669,2.4562635,1.4293472,11.926187
80.831314,-0.018849403,61,23.966816,-0.013103351,98,0.053710938,0.10986328,59.8762,-8.069117,1031.6881,38.901867,2.5971458,11.111112,-0.015692104,-0.009934303,19.907816,11.835841,1.3825672,42.24669,2.4562635,1.4293472,11.926187
80.831314,-0.017518379,61,24.011908,-0.011686541,98,0.053710938,0.10986328,59.8762,-8.069117,1031.6881,38.901867,2.5971458,11.111112,-0.01566394,-0.009920566,19.907816,11.835841,1.3825672,42.24669,2.4562635,1.4293472,11.926187
80.96071,-0.013392024,61,23.94427,-0.0076463297,98,0.12939453,0.075683594,59.8762,-8.069117,1031.6881,38.901867,2.5971458,11.111112,-0.015636055,-0.009906999,19.907816,11.835841,1.3825672,42.24669,2.4562635,1.4293472,11.926187
80.96071,-0.012536578,61,23.966816,-0.0069216415,98,0.12939453,0.075683594,59.8762,-8.069117,1031.6881,38.901867,2.5971458,11.111112,-0.015596675,-0.009882452,19.907816,11.835841,1.3825672,42.24669,2.4562635,1.4293472,11.926187
80.96071,-0.0154579505,61,24.03445,-0.009904392,98,0.12939453,0.075683594,59.8762,-8.069117,1031.6881,38.901867,2.5971458,11.111112,-0.015550867,-0.009852451,19.907816,11.835841,1.3825672,42.24669,2.4562635,1.4293472,11.926187
81.094986,-0.018655904,61,23.94427,-0.012991346,98,0.13427734,0.0048828125,59.8762,-8.069117,1031.6881,38.901867,2.5971458,11.111112,-0.0155121675,-0.00983005,19.907816,11.835841,1.3825672,42.24669,2.4562635,1.4293472,11.926187
81.094986,-0.017370075,61,23.989363,-0.011621363,98,0.13427734,0.0048828125,59.8762,-8.069117,1031.6881,38.901867,2.5971458,11.111112,-0.015482507,-0.009817014,19.907816,11.835841,1.3825672,42.24669,2.4562635,1.4293472,11.926187
81.094986,-0.013255499,61,23.966816,-0.007592976,98,0.13427734,0.0048828125,59.8762,-8.069117,1031.6881,38.901867,2.5971458,11.111112,-0.015455201,-0.009806344,19.907816,11.835841,1.3825672,42.24669,2.4562635,1.4293472,11.926187
81.17067,-0.012338407,61,23.94427,-0.0068096817,98,0.075683594,-0.05859375,59.8762,-8.069117,1031.6881,38.901867,2.5971458,11.111112,-0.015415567,-0.0097839525,19.907816,11.835841,1.3825672,42.24669,2.4562635,1.4293472,11.926187
81.17067,-0.015206695,61,24.03445,-0.009742565,98,0.075683594,-0.05859375,59.8762,-8.069117,1031.6881,38.901867,2.5971458,11.111112,-0.0153653165,-0.009751587,19.907816,11.835841,1.3825672,42.24669,2.4562635,1.4293472,11.926187
81.17067,-0.01844725,61,23.989363,-0.012873754,98,0.075683594,-0.05859375,59.8762,-8.069117,1031.6881,38.901867,2.5971458,11.111112,-0.015323586,-0.0097280685,19.907816,11.835841,1.3825672,42.24669,2.4562635,1.4293472,11.926187
81.17067,-0.017216094,61,23.94427,-0.011559293,98,0.075683594,-0.05859375,59.8762,-8.069117,1031.6881,38.901867,2.5971458,11.111112,-0.015292789,-0.009715654,19.907816,11.835841,1.3825672,42.24669,2.4562635,1.4293472,11.926187
81.13893,-0.013113208,61,24.011908,-0.0075410306,98,-0.03173828,-0.107421875,59.8762,-8.069117,1031.6881,38.901867,2.5971458,11.111112,-0.015264331,-0.009705265,19.907816,11.835841,1.3825672,42.24669,2.4562635,1.4293472,11.926187
81.13893,-0.012129039,61,23.966816,-0.0066930056,98,-0.03173828,-0.107421875,59.8762,-8.069117,1031.6881,38.901867,2.5971458,11.111112,-0.015222457,-0.00968193,19.907816,11.835841,1.3825672,42.24669,2.4562635,1.4293472,11.926187
81.13893,-0.014954321,61,23.989363,-0.009586327,98,-0.03173828,-0.107421875,59.8762,-8.069117,1031.6881,38.901867,2.5971458,11.111112,-0.015171982,-0.009650682,19.907816,11.835841,1.3825672,42.24669,2.4562635,1.4293472,11.926187
80.990005,-0.018239312,61,24.03445,-0.012762465,98,-0.14892578,-0.1171875,59.8762,-8.069117,1031.6881,38.901867,2.5971458,11.111112,-0.015130395,-0.009628424,19.907816,11.835841,1.3825672,42.24669,2.4562635,1.4293472,11.926187
80.990005,-0.017042913,61,23.966816,-0.011484414,98,-0.14892578,-0.1171875,59.8762,-8.069117,1031.6881,38.901867,2.5971458,11.111112,-0.015095758,-0.009613449,19.907816,11.835841,1.3825672,42.24669,2.4562635,1.4293472,11.926187
80.990005,-0.0129546,61,23.94427,-0.0074803904,98,-0.14892578,-0.1171875,59.8762,-8.069117,1031.6881,38.901867,2.5971458,11.111112,-0.015064037,-0.00960132,19.907816,11.835841,1.3825672,42.24669,2.4562635,1.4293472,11.926187
80.73609,-0.011905342,61,23.989363,-0.006568864,98,-0.25391388,-0.10498047,59.8762,-8.069117,1031.6881,38.901867,2.5971458,11.111112,-0.015019298,-0.009576492,19.907816,11.835841,1.3825672,42.24669,2.4562635,1.4293472,11.926187
80.73609,-0.014696136,61,23.966816,-0.009430803,98,-0.25391388,-0.10498047,59.8762,-8.069117,1031.6881,38.901867,2.5971458,11.111112,-0.01496766,-0.009545388,19.907816,11.835841,1.3825672,42.24669,2.4562635,1.4293472,11.926187
80.73609,-0.018013805,61,24.011908,-0.012641922,98,-0.25391388,-0.10498047,59.8762,-8.069117,1031.6881,38.901867,2.5971458,11.111112,-0.014922559,-0.009521279,19.907816,11.835841,1.3825672,42.24669,2.4562635,1.4293472,11.926187
80.73609,-0.016864479,61,23.966816,-0.011411391,98,-0.25391388,-0.10498047,59.8762,-8.069117,1031.6881,38.901867,2.5971458,11.111112,-0.014886873,-0.0095066745,19.907816,11.835841,1.3825672,42.24669,2.4562635,1.4293472,11.926187
80.43336,-0.012794405,61,23.92172,-0.0074234605,98,-0.30273438,-0.048812866,59.8762,-8.069117,1031.6881,38.901867,2.5971458,11.111112,-0.0148548335,-0.009495288,19.907816,11.835841,1.3825672,42.24669,2.4562635,1.4293472,11.926187
80.43336,-0.01168149,61,24.03445,-0.0064496174,98,-0.30273438,-0.048812866,59.8762,-8.069117,1031.6881,38.901867,2.5971458,11.111112,-0.014810063,-0.009471439,19.907816,11.835841,1.3825672,42.24669,2.4562635,1.4293472,11.926187
80.43336,-0.014422059,61,23.966816,-0.009264439,98,-0.30273438,-0.048812866,59.8762,-8.069117,1031.6881,38.901867,2.5971458,11.111112,-0.014755248,-0.009438166,19.907816,11.835841,1.3825672,42.24669,2.4562635,1.4293472,11.926187
80.130615,-0.017782018,61,23.94427,-0.012519456,98,-0.302742,-1.5258789E-05,59.8762,-8.069117,1031.6881,38.901867,2.5971458,11.111112,-0.014708891,-0.009413674,19.907816,11.835841,1.3825672,42.24669,2.4562635,1.4293472,11.926187
80.130615,-0.016683362,61,24.011908,-0.011339776,98,-0.302742,-1.5258789E-05,59.8762,-8.069117,1031.6881,38.901867,2.5971458,11.111112,-0.014672667,-0.00939935,19.907816,11.835841,1.3825672,42.24669,2.4562635,1.4293472,11.926187
80.130615,-0.012629785,61,23.92172,-0.0073660836,98,-0.302742,-1.5258789E-05,59.8762,-8.069117,1031.6881,38.901867,2.5971458,11.111112,-0.014639743,-0.009387875,19.907816,11.835841,1.3825672,42.24669,2.4562635,1.4293472,11.926187
79.84741,-0.0114473775,61,23.989363,-0.0063250735,98,-0.28320313,0.01953125,59.8762,-8.069117,1031.6881,38.901867,2.5971458,11.111112,-0.01459292,-0.009362966,19.907816,11.835841,1.3825672,42.24669,2.4562635,1.4293472,11.926187
79.84741,-0.014148518,61,24.011908,-0.009103864,98,-0.28320313,0.01953125,59.8762,-8.069117,1031.6881,38.901867,2.5971458,11.111112,-0.014538213,-0.009330851,19.907816,11.835841,1.3825672,42.24669,2.4562635,1.4293472,11.926187
79.84741,-0.01755403,61,23.94427,-0.01240591,98,-0.28320313,0.01953125,59.8762,-8.069117,1031.6881,38.901867,2.5971458,11.111112,-0.014492615,-0.009308142,19.907816,11.835841,1.3825672,42.24669,2.4562635,1.4293472,11.926187
79.84741,-0.016495094,61,23.989363,-0.0112660825,98,-0.28320313,0.01953125,59.8762,-8.069117,1031.6881,38.901867,2.5971458,11.111112,-0.014454961,-0.009293403,19.907816,11.835841,1.3825672,42.24669,2.4562635,1.4293472,11.926187
79.534904,-0.012458079,61,23.966816,-0.007306628,98,-0.31250763,-0.029296875,59.8762,-8.069117,1031.6881,38.901867,2.5971458,11.111112,-0.01442062,-0.009281511,19.907816,11.835841,1.3825672,42.24669,2.4562635,1.4293472,11.926187
79.534904,-0.011210047,61,23.94427,-0.00620158,98,-0.31250763,-0.029296875,59.8762,-8.069117,1031.6881,38.901867,2.5971458,11.111112,-0.014373153,-0.009256813,19.907816,11.835841,1.3825672,42.24669,2.4562635,1.4293472,11.926187
79.534904,-0.013865322,61,24.03445,-0.00893759,98,-0.31250763,-0.029296875,59.8762,-8.069117,1031.6881,38.901867,2.5971458,11.111112,-0.014316514,-0.009223558,19.907816,11.835841,1.3825672,42.24669,2.4562635,1.4293472,11.926187
79.20531,-0.017305702,61,23.966816,-0.012275487,98,-0.32959747,-0.017089844,59.8762,-8.069117,1031.6881,38.901867,2.5971458,11.111112,-0.014266849,-0.0091974735,19.907816,11.835841,1.3825672,42.24669,2.4562635,1.4293472,11.926187
79.20531,-0.016301773,61,23.94427,-0.011190981,98,-0.32959747,-0.017089844,59.8762,-8.069117,1031.6881,38.901867,2.5971458,11.111112,-0.014228185,-0.009182453,19.907816,11.835841,1.3825672,42.24669,2.4562635,1.4293472,11.926187
79.20531,-0.01227513,61,23.989363,-0.007240154,98,-0.32959747,-0.017089844,59.8762,-8.069117,1031.6881,38.901867,2.5971458,11.111112,-0.014191595,-0.0091691585,19.907816,11.835841,1.3825672,42.24669,2.4562635,1.4293472,11.926187
78.887924,-0.010969698,61,23.966816,-0.006078735,98,-0.3173828,0.012207031,59.8762,-8.069117,1031.6881,38.901867,2.5971458,11.111112,-0.014143526,-0.009144589,19.907816,11.835841,1.3825672,42.24669,2.4562635,1.4293472,11.926187
78.887924,-0.013586685,61,23.989363,-0.008778758,98,-0.3173828,0.012207031,59.8762,-8.069117,1031.6881,38.901867,2.5971458,11.111112,-0.014087798,-0.009112823,19.907816,11.835841,1.3825672,42.24669,2.4562635,1.4293472,11.926187
78.887924,-0.017067477,61,24.03445,-0.012156419,98,-0.3173828,0.012207031,59.8762,-8.069117,1031.6881,38.901867,2.5971458,11.111112,-0.014040153,-0.00908901,19.907816,11.835841,1.3825672,42.24669,2.4562635,1.4293472,11.926187
78.887924,-0.016101591,61,23.94427,-0.011108838,98,-0.3173828,0.012207031,59.8762,-8.069117,1031.6881,38.901867,2.5971458,11.111112,-0.014000117,-0.009072581,19.907816,11.835841,1.3825672,42.24669,2.4562635,1.4293472,11.926187
78.62913,-0.012094505,61,23.94427,-0.0071767196,98,-0.2587967,0.05859375,59.8762,-8.069117,1031.6881,38.901867,2.5971458,11.111112,-0.013963992,-0.009059894,19.907816,11.835841,1.3825672,42.24669,2.4562635,1.4293472,11.926187
78.62913,-0.010719426,61,24.011908,-0.0059479326,98,-0.2587967,0.05859375,59.8762,-8.069117,1031.6881,38.901867,2.5971458,11.111112,-0.013913937,-0.009033734,19.907816,11.835841,1.3825672,42.24669,2.4562635,1.4293472,11.926187
78.62913,-0.013308138,61,23.966816,-0.008619748,98,-0.2587967,0.05859375,59.8762,-8.069117,1031.6881,38.901867,2.5971458,11.111112,-0.013858228,-0.009001932,19.907816,11.835841,1.3825672,42.24669,2.4562635,1.4293472,11.926187
78.44602,-0.016819306,61,23.989363,-0.012026466,98,-0.18310547,0.07569885,59.8762,-8.069117,1031.6881,38.901867,2.5971458,11.111112,-0.013808593,-0.008975941,19.907816,11.835841,1.3825672,42.24669,2.4562635,1.4293472,11.926187
78.44602,-0.015899017,61,24.011908,-0.011024617,98,-0.18310547,0.07569885,59.8762,-8.069117,1031.6881,38.901867,2.5971458,11.111112,-0.013768079,-0.008959097,19.907816,11.835841,1.3825672,42.24669,2.4562635,1.4293472,11.926187
78.44602,-0.011912607,61,23.899172,-0.00711181,98,-0.18310547,0.07569885,59.8762,-8.069117,1031.6881,38.901867,2.5971458,11.111112,-0.0137316985,-0.008946115,19.907816,11.835841,1.3825672,42.24669,2.4562635,1.4293472,11.926187
78.31907,-0.010476597,61,24.011908,-0.0058239475,98,-0.12695313,0.056152344,59.8762,-8.069117,1031.6881,38.901867,2.5971458,11.111112,-0.013683133,-0.008921318,19.907816,11.835841,1.3825672,42.24669,2.4562635,1.4293472,11.926187
78.31907,-0.013011485,61,23.989363,-0.008442745,98,-0.12695313,0.056152344,59.8762,-8.069117,1031.6881,38.901867,2.5971458,11.111112,-0.013623803,-0.008885917,19.907816,11.835841,1.3825672,42.24669,2.4562635,1.4293472,11.926187
78.31907,-0.016559422,61,23.966816,-0.011884555,98,-0.12695313,0.056152344,59.8762,-8.069117,1031.6881,38.901867,2.5971458,11.111112,-0.013571826,-0.008857535,19.907816,11.835841,1.3825672,42.24669,2.4562635,1.4293472,11.926187
78.31907,-0.015694164,61,24.03445,-0.010936819,98,-0.12695313,0.056152344,59.8762,-8.069117,1031.6881,38.901867,2.5971458,11.111112,-0.013530855,-0.008839975,19.907816,11.835841,1.3825672,42.24669,2.4562635,1.4293472,11.926187
78.23117,-0.011731245,61,23.92172,-0.007046543,98,-0.087898254,0.03904724,59.8762,-8.069117,1031.6881,38.901867,2.5971458,11.111112,-0.013494583,-0.008826922,19.907816,11.835841,1.3825672,42.24669,2.4562635,1.4293472,11.926187
78.23117,-0.010228626,61,23.966816,-0.0056939274,98,-0.087898254,0.03904724,59.8762,-8.069117,1031.6881,38.901867,2.5971458,11.111112,-0.013444989,-0.008800918,19.907816,11.835841,1.3825672,42.24669,2.4562635,1.4293472,11.926187
78.23117,-0.012723707,61,24.056995,-0.008272871,98,-0.087898254,0.03904724,59.8762,-8.069117,1031.6881,38.901867,2.5971458,11.111112,-0.013387433,-0.008766944,19.907816,11.835841,1.3825672,42.24669,2.4562635,1.4293472,11.926187
78.1799,-0.016310088,61,23.94427,-0.011749886,98,-0.05126953,0.036621094,59.8762,-8.069117,1031.6881,38.901867,2.5971458,11.111112,-0.0133375665,-0.00874001,19.907816,11.835841,1.3825672,42.24669,2.4562635,1.4293472,11.926187
78.1799,-0.015483722,61,23.966816,-0.01084131,98,-0.05126953,0.036621094,59.8762,-8.069117,1031.6881,38.901867,2.5971458,11.111112,-0.013295478,-0.008720907,19.907816,11.835841,1.3825672,42.24669,2.4562635,1.4293472,11.926187
78.1799,-0.011537746,61,23.989363,-0.0069694966,98,-0.05126953,0.036621094,59.8762,-8.069117,1031.6881,38.901867,2.5971458,11.111112,-0.013256778,-0.008705499,19.907816,11.835841,1.3825672,42.24669,2.4562635,1.4293472,11.926187
78.14816,-0.009971045,61,23.94427,-0.0055545866,98,-0.03173828,0.01953125,59.8762,-8.069117,1031.6881,38.901867,2.5971458,11.111112,-0.013205262,-0.008677631,19.907816,11.835841,1.3825672,42.24669,2.4562635,1.4293472,11.926187
78.14816,-0.012438498,61,24.011908,-0.008105211,98,-0.03173828,0.01953125,59.8762,-8.069117,1031.6881,38.901867,2.5971458,11.111112,-0.01314822,-0.008644098,19.907816,11.835841,1.3825672,42.24669,2.4562635,1.4293472,11.926187
78.14816,-0.016047254,61,23.989363,-0.011604823,98,-0.03173828,0.01953125,59.8762,-8.069117,1031.6881,38.901867,2.5971458,11.111112,-0.013095654,-0.008615086,19.907816,11.835841,1.3825672,42.24669,2.4562635,1.4293472,11.926187
78.14816,-0.015269078,61,23.94427,-0.01074551,98,-0.03173828,0.01953125,59.8762,-8.069117,1031.6881,38.901867,2.5971458,11.111112,-0.013052724,-0.008595926,19.907816,11.835841,1.3825672,42.24669,2.4562635,1.4293472,11.926187
78.11398,-0.011346839,61,23.966816,-0.0068955123,98,-0.034179688,-0.0024414063,59.8762,-8.069117,1031.6881,38.901867,2.5971458,11.111112,-0.013014543,-0.008581129,19.907816,11.835841,1.3825672,42.24669,2.4562635,1.4293472,11.926187
78.11398,-0.0097195655,61,23.966816,-0.0054224655,98,-0.034179688,-0.0024414063,59.8762,-8.069117,1031.6881,38.901867,2.5971458,11.111112,-0.012964248,-0.0085547045,19.907816,11.835841,1.3825672,42.24669,2.4562635,1.4293472,11.926187
78.11398,-0.012130983,61,23.966816,-0.007919647,98,-0.034179688,-0.0024414063,59.8762,-8.069117,1031.6881,38.901867,2.5971458,11.111112,-0.012902744,-0.008517592,19.907816,11.835841,1.3825672,42.24669,2.4562635,1.4293472,11.926187
78.06271,-0.01577653,61,24.03445,-0.011456162,98,-0.05126953,-0.017089844,59.8762,-8.069117,1031.6881,38.901867,2.5971458,11.111112,-0.0128486,-0.00848786,19.907816,11.835841,1.3825672,42.24669,2.4562635,1.4293472,11.926187
78.06271,-0.015048221,61,23.94427,-0.010647342,98,-0.05126953,-0.017089844,59.8762,-8.069117,1031.6881,38.901867,2.5971458,11.111112,-0.012804428,-0.008468226,19.907816,11.835841,1.3825672,42.24669,2.4562635,1.4293472,11.926187
78.06271,-0.011151016,61,23.92172,-0.006822355,98,-0.05126953,-0.017089844,59.8762,-8.069117,1031.6881,38.901867,2.5971458,11.111112,-0.012765263,-0.0084535945,19.907816,11.835841,1.3825672,42.24669,2.4562635,1.4293472,11.926187
77.99924,-0.009454943,61,24.056995,-0.005282365,98,-0.06347656,-0.012207031,59.8762,-8.069117,1031.6881,38.901867,2.5971458,11.111112,-0.012712339,-0.008425574,19.907816,11.835841,1.3825672,42.24669,2.4562635,1.4293472,11.926187
77.99924,-0.011824317,61,23.989363,-0.007739112,98,-0.06347656,-0.012207031,59.8762,-8.069117,1031.6881,38.901867,2.5971458,11.111112,-0.012651006,-0.008389467,19.907816,11.835841,1.3825672,42.24669,2.4562635,1.4293472,11.926187
77.99924,-0.015502609,61,23.966816,-0.011309423,98,-0.06347656,-0.012207031,59.8762,-8.069117,1031.6881,38.901867,2.5971458,11.111112,-0.012596222,-0.00836012,19.907816,11.835841,1.3825672,42.24669,2.4562635,1.4293472,11.926187
77.99924,-0.014821127,61,24.03445,-0.010547876,98,-0.06347656,-0.012207031,59.8762,-8.069117,1031.6881,38.901867,2.5971458,11.111112,-0.012550803,-0.0083402265,19.907816,11.835841,1.3825672,42.24669,2.4562635,1.4293472,11.926187
77.92355,-0.010938808,61,23.899172,-0.0067367703,98,-0.075683594,-0.012207031,59.8762,-8.069117,1031.6881,38.901867,2.5971458,11.111112,-0.012508362,-0.00832311,19.907816,11.835841,1.3825672,42.24669,2.4562635,1.4293472,11.926187
77.92355,-0.009179726,61,23.989363,-0.0051358044,98,-0.075683594,-0.012207031,59.8762,-8.069117,1031.6881,38.901867,2.5971458,11.111112,-0.012453318,-0.008293797,19.907816,11.835841,1.3825672,42.24669,2.4562635,1.4293472,11.926187
77.92355,-0.01151564,61,24.03445,-0.0075611696,98,-0.075683594,-0.012207031,59.8762,-8.069117,1031.6881,38.901867,2.5971458,11.111112,-0.012391582,-0.008258209,19.907816,11.835841,1.3825672,42.24669,2.4562635,1.4293472,11.926187
77.83078,-0.015216775,61,23.94427,-0.011154927,98,-0.09277344,-0.017089844,59.8762,-8.069117,1031.6881,38.901867,2.5971458,11.111112,-0.012334416,-0.00822731,19.907816,11.835841,1.3825672,42.24669,2.4562635,1.4293472,11.926187
77.83078,-0.014584422,61,23.989363,-0.010443181,98,-0.09277344,-0.017089844,59.8762,-8.069117,1031.6881,38.901867,2.5971458,11.111112,-0.012287075,-0.00820637,19.907816,11.835841,1.3825672,42.24669,2.4562635,1.4293472,11.926187
77.83078,-0.010726467,61,23.989363,-0.0066541135,98,-0.09277344,-0.017089844,59.8762,-8.069117,1031.6881,38.901867,2.5971458,11.111112,-0.012244606,-0.008189839,19.907816,11.835841,1.3825672,42.24669,2.4562635,1.4293472,11.926187
77.752655,-0.008899234,61,23.94427,-0.0049868077,98,-0.078125,0.0146484375,59.8762,-8.069117,1031.6881,38.901867,2.5971458,11.111112,-0.012188508,-0.00816004,19.907816,11.835841,1.3825672,42.24669,2.4562635,1.4293472,11.926187
77.752655,-0.011184745,61,24.011908,-0.0073623285,98,-0.078125,0.0146484375,59.8762,-8.069117,1031.6881,38.901867,2.5971458,11.111112,-0.012122328,-0.008120271,19.907816,11.835841,1.3825672,42.24669,2.4562635,1.4293472,11.926187
77.752655,-0.01492542,61,23.989363,-0.010994241,98,-0.078125,0.0146484375,59.8762,-8.069117,1031.6881,38.901867,2.5971458,11.111112,-0.012064057,-0.008088134,19.907816,11.835841,1.3825672,42.24669,2.4562635,1.4293472,11.926187
77.752655,-0.014352277,61,23.94427,-0.010340922,98,-0.078125,0.0146484375,59.8762,-8.069117,1031.6881,38.901867,2.5971458,11.111112,-0.012017629,-0.008067682,19.907816,11.835841,1.3825672,42.24669,2.4562635,1.4293472,11.926187
77.71847,-0.010518976,61,24.011908,-0.006573446,98,-0.034187317,0.043945313,59.8762,-8.069117,1031.6881,38.901867,2.5971458,11.111112,-0.01197613,-0.008051549,19.907816,11.835841,1.3825672,42.24669,2.4562635,1.4293472,11.926187
77.71847,-0.008631706,61,23.94427,-0.0048457906,98,-0.034187317,0.043945313,59.8762,-8.069117,1031.6881,38.901867,2.5971458,11.111112,-0.011922625,-0.008023346,19.907816,11.835841,1.3825672,42.24669,2.4562635,1.4293472,11.926187
77.71847,-0.010876514,61,23.989363,-0.0071815476,98,-0.034187317,0.043945313,59.8762,-8.069117,1031.6881,38.901867,2.5971458,11.111112,-0.011860979,-0.007987189,19.907816,11.835841,1.3825672,42.24669,2.4562635,1.4293472,11.926187
77.72091,-0.014644571,61,24.03445,-0.0108414665,98,0.0024414063,0.036636353,59.8762,-8.069117,1031.6881,38.901867,2.5971458,11.111112,-0.011804809,-0.007956634,19.907816,11.835841,1.3825672,42.24669,2.4562635,1.4293472,11.926187
77.72091,-0.014115103,61,23.94427,-0.010230124,98,0.0024414063,0.036636353,59.8762,-8.069117,1031.6881,38.901867,2.5971458,11.111112,-0.011757374,-0.007934475,19.907816,11.835841,1.3825672,42.24669,2.4562635,1.4293472,11.926187
77.72091,-0.0103084445,61,23.94427,-0.0064862743,98,0.0024414063,0.036636353,59.8762,-8.069117,1031.6881,38.901867,2.5971458,11.111112,-0.011715268,-0.007917041,19.907816,11.835841,1.3825672,42.24669,2.4562635,1.4293472,11.926187
77.69161,-0.00835982,61,24.011908,-0.0046973303,98,-0.029296875,-0.03173828,59.8762,-8.069117,1031.6881,38.901867,2.5971458,11.111112,-0.011660891,-0.0078873485,19.907816,11.835841,1.3825672,42.24669,2.4562635,1.4293472,11.926187
77.69161,-0.010572128,61,23.94427,-0.007001035,98,-0.029296875,-0.03173828,59.8762,-8.069117,1031.6881,38.901867,2.5971458,11.111112,-0.011600013,-0.007851246,19.907816,11.835841,1.3825672,42.24669,2.4562635,1.4293472,11.926187
77.69161,-0.014357708,61,24.011908,-0.010678925,98,-0.029296875,-0.03173828,59.8762,-8.069117,1031.6881,38.901867,2.5971458,11.111112,-0.011542641,-0.007818738,19.907816,11.835841,1.3825672,42.24669,2.4562635,1.4293472,11.926187
77.69161,-0.013880745,61,23.966816,-0.010119125,98,-0.029296875,-0.03173828,59.8762,-8.069117,1031.6881,38.901867,2.5971458,11.111112,-0.011495769,-0.007796538,19.907816,11.835841,1.3825672,42.24669,2.4562635,1.4293472,11.926187
77.628136,-0.010102093,61,23.92172,-0.0063994825,98,-0.06347656,-0.034179688,59.8762,-8.069117,1031.6881,38.901867,2.5971458,11.111112,-0.011454499,-0.0077791796,19.907816,11.835841,1.3825672,42.24669,2.4562635,1.4293472,11.926187
77.628136,-0.008088246,61,24.011908,-0.0045457184,98,-0.06347656,-0.034179688,59.8762,-8.069117,1031.6881,38.901867,2.5971458,11.111112,-0.011400185,-0.007748857,19.907816,11.835841,1.3825672,42.24669,2.4562635,1.4293472,11.926187
77.628136,-0.0102497935,61,23.989363,-0.0068000704,98,-0.06347656,-0.034179688,59.8762,-8.069117,1031.6881,38.901867,2.5971458,11.111112,-0.0113357175,-0.0077086645,19.907816,11.835841,1.3825672,42.24669,2.4562635,1.4293472,11.926187
77.557335,-0.014070287,61,23.94427,-0.010513499,98,-0.07080078,-0.0073242188,59.8762,-8.069117,1031.6881,38.901867,2.5971458,11.111112,-0.0112782335,-0.0076755793,19.907816,11.835841,1.3825672,42.24669,2.4562635,1.4293472,11.926187
77.557335,-0.013651907,61,24.03445,-0.010011278,98,-0.07080078,-0.0073242188,59.8762,-8.069117,1031.6881,38.901867,2.5971458,11.111112,-0.0112324655,-0.00765401,19.907816,11.835841,1.3825672,42.24669,2.4562635,1.4293472,11.926187
77.557335,-0.009905666,61,23.92172,-0.006319374,98,-0.07080078,-0.0073242188,59.8762,-8.069117,1031.6881,38.901867,2.5971458,11.111112,-0.01119318,-0.0076379883,19.907816,11.835841,1.3825672,42.24669,2.4562635,1.4293472,11.926187
77.51583,-0.007828072,61,23.966816,-0.0044015273,98,-0.041503906,0.029296875,59.8762,-8.069117,1031.6881,38.901867,2.5971458,11.111112,-0.011141146,-0.00760915,19.907816,11.835841,1.3825672,42.24669,2.4562635,1.4293472,11.926187
77.51583,-0.009947531,61,24.056995,-0.0066154674,98,-0.041503906,0.029296875,59.8762,-8.069117,1031.6881,38.901867,2.5971458,11.111112,-0.0110806925,-0.0075722295,19.907816,11.835841,1.3825672,42.24669,2.4562635,1.4293472,11.926187
77.51583,-0.0137863755,61,23.966816,-0.010349661,98,-0.041503906,0.029296875,59.8762,-8.069117,1031.6881,38.901867,2.5971458,11.111112,-0.011023911,-0.007539462,19.907816,11.835841,1.3825672,42.24669,2.4562635,1.4293472,11.926187
77.51583,-0.013416454,61,23.966816,-0.009894535,98,-0.041503906,0.029296875,59.8762,-8.069117,1031.6881,38.901867,2.5971458,11.111112,-0.01097682,-0.007516113,19.907816,11.835841,1.3825672,42.24669,2.4562635,1.4293472,11.926187
77.52071,-0.009696543,61,23.966816,-0.006224133,98,0.0048828125,0.04638672,59.8762,-8.069117,1031.6881,38.901867,2.5971458,11.111112,-0.0109349955,-0.007497065,19.907816,11.835841,1.3825672,42.24669,2.4562635,1.4293472,11.926187
77.52071,-0.0075598955,61,23.94427,-0.004246719,98,0.0048828125,0.04638672,59.8762,-8.069117,1031.6881,38.901867,2.5971458,11.111112,-0.01088136,-0.0074661034,19.907816,11.835841,1.3825672,42.24669,2.4562635,1.4293472,11.926187
77.52071,-0.009647816,61,23.989363,-0.0064305738,98,0.0048828125,0.04638672,59.8762,-8.069117,1031.6881,38.901867,2.5971458,11.111112,-0.010821417,-0.0074291243,19.907816,11.835841,1.3825672,42.24669,2.4562635,1.4293472,11.926187
77.56466,-0.013503157,61,23.989363,-0.010182805,98,0.043945313,0.0390625,59.8762,-8.069117,1031.6881,38.901867,2.5971458,11.111112,-0.010764773,-0.007395753,19.907816,11.835841,1.3825672,42.24669,2.4562635,1.4293472,11.926187
77.56466,-0.013182633,61,23.94427,-0.009775892,98,0.043945313,0.0390625,59.8762,-8.069117,1031.6881,38.901867,2.5971458,11.111112,-0.010718009,-0.007372025,19.907816,11.835841,1.3825672,42.24669,2.4562635,1.4293472,11.926187
77.56466,-0.009495355,61,24.011908,-0.0061343014,98,0.043945313,0.0390625,59.8762,-8.069117,1031.6881,38.901867,2.5971458,11.111112,-0.010677772,-0.0073540583,19.907816,11.835841,1.3825672,42.24669,2.4562635,1.4293472,11.926187
77.61593,-0.0073102936,61,23.966816,-0.0041071773,98,0.05126953,0.0073242188,59.8762,-8.069117,1031.6881,38.901867,2.5971458,11.111112,-0.010627851,-0.00732615,19.907816,11.835841,1.3825672,42.24669,2.4562635,1.4293472,11.926187
77.61593,-0.009345576,61,23.966816,-0.0062389746,98,0.05126953,0.0073242188,59.8762,-8.069117,1031.6881,38.901867,2.5971458,11.111112,-0.010567403,-0.00728783,19.907816,11.835841,1.3825672,42.24669,2.4562635,1.4293472,11.926187
77.61593,-0.013220809,61,24.056995,-0.010010719,98,0.05126953,0.0073242188,59.8762,-8.069117,1031.6881,38.901867,2.5971458,11.111112,-0.010510934,-0.007253413,19.907816,11.835841,1.3825672,42.24669,2.4562635,1.4293472,11.926187
77.61593,-0.012960501,61,23.94427,-0.009661965,98,0.05126953,0.0073242188,59.8762,-8.069117,1031.6881,38.901867,2.5971458,11.111112,-0.010466508,-0.007230628,19.907816,11.835841,1.3825672,42.24669,2.4562635,1.4293472,11.926187
77.65011,-0.009316564,61,23.94427,-0.006060183,98,0.034179688,-0.017089844,59.8762,-8.069117,1031.6881,38.901867,2.5971458,11.111112,-0.010430749,-0.007215804,19.907816,11.835841,1.3825672,42.24669,2.4562635,1.4293472,11.926187
77.65011,-0.007068716,61,24.011908,-0.0039696246,98,0.034179688,-0.017089844,59.8762,-8.069117,1031.6881,38.901867,2.5971458,11.111112,-0.010382433,-0.0071882936,19.907816,11.835841,1.3825672,42.24669,2.4562635,1.4293472,11.926187
77.65011,-0.009062558,61,23.966816,-0.0060602278,98,0.034179688,-0.017089844,59.8762,-8.069117,1031.6881,38.901867,2.5971458,11.111112,-0.0103258295,-0.007152544,19.907816,11.835841,1.3825672,42.24669,2.4562635,1.4293472,11.926187
77.67208,-0.0129550025,61,24.011908,-0.009849407,98,0.021972656,-0.012207031,59.8762,-8.069117,1031.6881,38.901867,2.5971458,11.111112,-0.010272669,-0.0071202815,19.907816,11.835841,1.3825672,42.24669,2.4562635,1.4293472,11.926187
77.67208,-0.0127501935,61,23.989363,-0.009555012,98,0.021972656,-0.012207031,59.8762,-8.069117,1031.6881,38.901867,2.5971458,11.111112,-0.010230607,-0.007098891,19.907816,11.835841,1.3825672,42.24669,2.4562635,1.4293472,11.926187
77.67208,-0.009134464,61,23.899172,-0.0059785545,98,0.021972656,-0.012207031,59.8762,-8.069117,1031.6881,38.901867,2.5971458,11.111112,-0.010194187,-0.007082565,19.907816,11.835841,1.3825672,42.24669,2.4562635,1.4293472,11.926187
77.66964,-0.0068266466,61,24.011908,-0.0038294122,98,-0.0024414063,-0.024414063,59.8762,-8.069117,1031.6881,38.901867,2.5971458,11.111112,-0.010145773,-0.0070545226,19.907816,11.835841,1.3825672,42.24669,2.4562635,1.4293472,11.926187
77.66964,-0.008788638,61,24.011908,-0.0058873594,98,-0.0024414063,-0.024414063,59.8762,-8.069117,1031.6881,38.901867,2.5971458,11.111112,-0.010090989,-0.007019949,19.907816,11.835841,1.3825672,42.24669,2.4562635,1.4293472,11.926187
77.66964,-0.012696326,61,23.966816,-0.009689279,98,-0.0024414063,-0.024414063,59.8762,-8.069117,1031.6881,38.901867,2.5971458,11.111112,-0.010039254,-0.0069879233,19.907816,11.835841,1.3825672,42.24669,2.4562635,1.4293472,11.926187
77.66964,-0.012545273,61,24.056995,-0.009446941,98,-0.0024414063,-0.024414063,59.8762,-8.069117,1031.6881,38.901867,2.5971458,11.111112,-0.009998269,-0.006966309,19.907816,11.835841,1.3825672,42.24669,2.4562635,1.4293472,11.926187
77.66476,-0.008974068,61,23.92172,-0.0059128404,98,-0.0048828125,-0.0024414063,59.8762,-8.069117,1031.6881,38.901867,2.5971458,11.111112,-0.00996619,-0.0069531663,19.907816,11.835841,1.3825672,42.24669,2.4562635,1.4293472,11.926187
77.66476,-0.0066173896,61,23.966816,-0.0037145242,98,-0.0048828125,-0.0024414063,59.8762,-8.069117,1031.6881,38.901867,2.5971458,11.111112,-0.009924339,-0.0069301887,19.907816,11.835841,1.3825672,42.24669,2.4562635,1.4293472,11.926187
77.66476,-0.008524597,61,24.03445,-0.005715832,98,-0.0048828125,-0.0024414063,59.8762,-8.069117,1031.6881,38.901867,2.5971458,11.111112,-0.00987153,-0.0068958835,19.907816,11.835841,1.3825672,42.24669,2.4562635,1.4293472,11.926187
77.68429,-0.012435146,61,23.94427,-0.009519406,98,0.01953125,0.024414063,59.8762,-8.069117,1031.6881,38.901867,2.5971458,11.111112,-0.009819294,-0.006861909,19.907816,11.835841,1.3825672,42.24669,2.4562635,1.4293472,11.926187
77.68429,-0.01234775,61,23.966816,-0.009338424,98,0.01953125,0.024414063,59.8762,-8.069117,1031.6881,38.901867,2.5971458,11.111112,-0.00977979,-0.0068402053,19.907816,11.835841,1.3825672,42.24669,2.4562635,1.4293472,11.926187
77.68429,-0.008820958,61,23.966816,-0.005844936,98,0.01953125,0.024414063,59.8762,-8.069117,1031.6881,38.901867,2.5971458,11.111112,-0.0097491685,-0.0068266243,19.907816,11.835841,1.3825672,42.24669,2.4562635,1.4293472,11.926187
77.70382,-0.0064134076,61,23.94427,-0.0035941824,98,0.01953125,0,59.8762,-8.069117,1031.6881,38.901867,2.5971458,11.111112,-0.009708372,-0.006802556,19.907816,11.835841,1.3825672,42.24669,2.4562635,1.4293472,11.926187
77.70382,-0.00827913,61,24.03445,-0.005552374,98,0.01953125,0,59.8762,-8.069117,1031.6881,38.901867,2.5971458,11.111112,-0.009659278,-0.0067698644,19.907816,11.835841,1.3825672,42.24669,2.4562635,1.4293472,11.926187
77.70382,-0.012195043,61,23.989363,-0.009359188,98,0.01953125,0,59.8762,-8.069117,1031.6881,38.901867,2.5971458,11.111112,-0.009611258,-0.006737821,19.907816,11.835841,1.3825672,42.24669,2.4562635,1.4293472,11.926187
77.70382,-0.012159616,61,23.92172,-0.009226732,98,0.01953125,0,59.8762,-8.069117,1031.6881,38.901867,2.5971458,11.111112,-0.009573631,-0.0067154826,19.907816,11.835841,1.3825672,42.24669,2.4562635,1.4293472,11.926187
77.72579,-0.008675069,61,23.989363,-0.0057707727,98,0.021972656,0.0024414063,59.8762,-8.069117,1031.6881,38.901867,2.5971458,11.111112,-0.009544454,-0.00670065,19.907816,11.835841,1.3825672,42.24669,2.4562635,1.4293472,11.926187
77.72579,-0.006220199,61,23.94427,-0.0034714043,98,0.021972656,0.0024414063,59.8762,-8.069117,1031.6881,38.901867,2.5971458,11.111112,-0.009505811,-0.006676094,19.907816,11.835841,1.3825672,42.24669,2.4562635,1.4293472,11.926187
77.72579,-0.008049063,61,23.989363,-0.005390078,98,0.021972656,0.0024414063,59.8762,-8.069117,1031.6881,38.901867,2.5971458,11.111112,-0.009459798,-0.006643635,19.907816,11.835841,1.3825672,42.24669,2.4562635,1.4293472,11.926187
77.77219,-0.011953689,61,24.03445,-0.009184264,98,0.04639435,0.024429321,59.8762,-8.069117,1031.6881,38.901867,2.5971458,11.111112,-0.009411528,-0.00660865,19.907816,11.835841,1.3825672,42.24669,2.4562635,1.4293472,11.926187
77.77219,-0.011973985,61,23.94427,-0.009104133,98,0.04639435,0.024429321,59.8762,-8.069117,1031.6881,38.901867,2.5971458,11.111112,-0.0093744015,-0.00658413,19.907816,11.835841,1.3825672,42.24669,2.4562635,1.4293472,11.926187
77.77219,-0.008551508,61,23.94427,-0.005705148,98,0.04639435,0.024429321,59.8762,-8.069117,1031.6881,38.901867,2.5971458,11.111112,-0.009349689,-0.0065710056,19.907816,11.835841,1.3825672,42.24669,2.4562635,1.4293472,11.926187
77.840546,-0.0060637146,61,24.011908,-0.0033703968,98,0.068359375,0.021972656,59.8762,-8.069117,1031.6881,38.901867,2.5971458,11.111112,-0.009318392,-0.006550804,19.907816,11.835841,1.3825672,42.24669,2.4562635,1.4293472,11.926187
77.840546,-0.007826619,61,23.94427,-0.005221881,98,0.068359375,0.021972656,59.8762,-8.069117,1031.6881,38.901867,2.5971458,11.111112,-0.009273903,-0.0065171644,19.907816,11.835841,1.3825672,42.24669,2.4562635,1.4293472,11.926187
77.840546,-0.011712447,61,23.989363,-0.008997068,98,0.068359375,0.021972656,59.8762,-8.069117,1031.6881,38.901867,2.5971458,11.111112,-0.009225654,-0.0064797252,19.907816,11.835841,1.3825672,42.24669,2.4562635,1.4293472,11.926187
77.840546,-0.011797853,61,23.989363,-0.008979343,98,0.068359375,0.021972656,59.8762,-8.069117,1031.6881,38.901867,2.5971458,11.111112,-0.009190428,-0.006454767,19.907816,11.835841,1.3825672,42.24669,2.4562635,1.4293472,11.926187
77.90158,-0.008430116,61,23.92172,-0.0056300014,98,0.061035156,-0.0073242188,59.8762,-8.069117,1031.6881,38.901867,2.5971458,11.111112,-0.00916615,-0.006439738,19.907816,11.835841,1.3825672,42.24669,2.4562635,1.4293472,11.926187
77.90158,-0.0058916286,61,23.989363,-0.0032444447,98,0.061035156,-0.0073242188,59.8762,-8.069117,1031.6881,38.901867,2.5971458,11.111112,-0.009131732,-0.0064145476,19.907816,11.835841,1.3825672,42.24669,2.4562635,1.4293472,11.926187
77.90158,-0.0076085106,61,24.011908,-0.005049348,98,0.061035156,-0.0073242188,59.8762,-8.069117,1031.6881,38.901867,2.5971458,11.111112,-0.009088111,-0.006380041,19.907816,11.835841,1.3825672,42.24669,2.4562635,1.4293472,11.926187
77.93332,-0.011498384,61,23.966816,-0.008827686,98,0.03173828,-0.029296875,59.8762,-8.069117,1031.6881,38.901867,2.5971458,11.111112,-0.009045298,-0.0063461647,19.907816,11.835841,1.3825672,42.24669,2.4562635,1.4293472,11.926187
77.93332,-0.011627175,61,24.03445,-0.008852027,98,0.03173828,-0.029296875,59.8762,-8.069117,1031.6881,38.901867,2.5971458,11.111112,-0.009011163,-0.0063207014,19.907816,11.835841,1.3825672,42.24669,2.4562635,1.4293472,11.926187
77.93332,-0.008307427,61,23.92172,-0.005547479,98,0.03173828,-0.029296875,59.8762,-8.069117,1031.6881,38.901867,2.5971458,11.111112,-0.008986625,-0.006304197,19.907816,11.835841,1.3825672,42.24669,2.4562635,1.4293472,11.926187
77.93332,-0.0057199225,61,23.94427,-0.0031129941,98,0.03173828,-0.029296875,59.8762,-8.069117,1031.6881,38.901867,2.5971458,11.111112,-0.008952284,-0.006277907,19.907816,11.835841,1.3825672,42.24669,2.4562635,1.4293472,11.926187
77.945526,-0.007403992,61,24.056995,-0.0048836544,98,0.012207031,-0.01953125,59.8762,-8.069117,1031.6881,38.901867,2.5971458,11.111112,-0.008911381,-0.0062447684,19.907816,11.835841,1.3825672,42.24669,2.4562635,1.4293472,11.926187
77.945526,-0.011283763,61,23.966816,-0.008650169,98,0.012207031,-0.01953125,59.8762,-8.069117,1031.6881,38.901867,2.5971458,11.111112,-0.008868456,-0.006209265,19.907816,11.835841,1.3825672,42.24669,2.4562635,1.4293472,11.926187
77.945526,-0.011473842,61,23.94427,-0.008732557,98,0.012207031,-0.01953125,59.8762,-8.069117,1031.6881,38.901867,2.5971458,11.111112,-0.008837789,-0.006185371,19.907816,11.835841,1.3825672,42.24669,2.4562635,1.4293472,11.926187
77.95529,-0.008199535,61,23.989363,-0.005469963,98,0.009765625,-0.0024414063,59.8762,-8.069117,1031.6881,38.901867,2.5971458,11.111112,-0.0088162115,-0.0061698677,19.907816,11.835841,1.3825672,42.24669,2.4562635,1.4293472,11.926187
77.95529,-0.0055634826,61,23.94427,-0.0029863492,98,0.009765625,-0.0024414063,59.8762,-8.069117,1031.6881,38.901867,2.5971458,11.111112,-0.008784923,-0.0061445385,19.907816,11.835841,1.3825672,42.24669,2.4562635,1.4293472,11.926187
77.95529,-0.0071847886,61,23.966816,-0.004693575,98,0.009765625,-0.0024414063,59.8762,-8.069117,1031.6881,38.901867,2.5971458,11.111112,-0.008741083,-0.006106523,19.907816,11.835841,1.3825672,42.24669,2.4562635,1.4293472,11.926187
77.98459,-0.01107531,61,24.03445,-0.008468606,98,0.029296875,0.01953125,59.8762,-8.069117,1031.6881,38.901867,2.5971458,11.111112,-0.008699392,-0.00607021,19.907816,11.835841,1.3825672,42.24669,2.4562635,1.4293472,11.926187
77.98459,-0.011328511,61,23.94427,-0.008611791,98,0.029296875,0.01953125,59.8762,-8.069117,1031.6881,38.901867,2.5971458,11.111112,-0.008670325,-0.0060460567,19.907816,11.835841,1.3825672,42.24669,2.4562635,1.4293472,11.926187
77.98459,-0.008099355,61,23.94427,-0.005390927,98,0.029296875,0.01953125,59.8762,-8.069117,1031.6881,38.901867,2.5971458,11.111112,-0.00865029,-0.00603025,19.907816,11.835841,1.3825672,42.24669,2.4562635,1.4293472,11.926187
77.98459,-0.0054093227,61,23.989363,-0.0028531328,98,0.029296875,0.01953125,59.8762,-8.069117,1031.6881,38.901867,2.5971458,11.111112,-0.0086194575,-0.0060036066,19.907816,11.835841,1.3825672,42.24669,2.4562635,1.4293472,11.926187
78.0676,-0.006991893,61,23.94427,-0.004519455,98,0.08300781,0.053710938,59.8762,-8.069117,1031.6881,38.901867,2.5971458,11.111112,-0.008580878,-0.0059687826,19.907816,11.835841,1.3825672,42.24669,2.4562635,1.4293472,11.926187
78.0676,-0.010879263,61,24.011908,-0.008291714,98,0.08300781,0.053710938,59.8762,-8.069117,1031.6881,38.901867,2.5971458,11.111112,-0.008541669,-0.005933404,19.907816,11.835841,1.3825672,42.24669,2.4562635,1.4293472,11.926187
78.0676,-0.011187606,61,23.989363,-0.008487605,98,0.08300781,0.053710938,59.8762,-8.069117,1031.6881,38.901867,2.5971458,11.111112,-0.008513488,-0.005908567,19.907816,11.835841,1.3825672,42.24669,2.4562635,1.4293472,11.926187
78.21164,-0.007994905,61,23.899172,-0.005299978,98,0.14404297,0.061035156,59.8762,-8.069117,1031.6881,38.901867,2.5971458,11.111112,-0.008492598,-0.005890377,19.907816,11.835841,1.3825672,42.24669,2.4562635,1.4293472,11.926187
78.21164,-0.0052565485,61,24.011908,-0.002714105,98,0.14404297,0.061035156,59.8762,-8.069117,1031.6881,38.901867,2.5971458,11.111112,-0.0084620435,-0.0058625713,19.907816,11.835841,1.3825672,42.24669,2.4562635,1.4293472,11.926187
78.21164,-0.0068077147,61,24.011908,-0.004348509,98,0.14404297,0.061035156,59.8762,-8.069117,1031.6881,38.901867,2.5971458,11.111112,-0.008425208,-0.005828382,19.907816,11.835841,1.3825672,42.24669,2.4562635,1.4293472,11.926187
78.365456,-0.010687105,61,23.966816,-0.008112431,98,0.15381622,0.009765625,59.8762,-8.069117,1031.6881,38.901867,2.5971458,11.111112,-0.008386776,-0.0057925256,19.907816,11.835841,1.3825672,42.24669,2.4562635,1.4293472,11.926187
78.365456,-0.0110568255,61,24.03445,-0.008367911,98,0.15381622,0.009765625,59.8762,-8.069117,1031.6881,38.901867,2.5971458,11.111112,-0.00836062,-0.005768587,19.907816,11.835841,1.3825672,42.24669,2.4562635,1.4293472,11.926187
78.365456,-0.007898793,61,23.92172,-0.0052126497,98,0.15381622,0.009765625,59.8762,-8.069117,1031.6881,38.901867,2.5971458,11.111112,-0.008341397,-0.0057511213,19.907816,11.835841,1.3825672,42.24669,2.4562635,1.4293472,11.926187
78.365456,-0.0051189736,61,23.94427,-0.0025851354,98,0.15381622,0.009765625,59.8762,-8.069117,1031.6881,38.901867,2.5971458,11.111112,-0.008313882,-0.0057253274,19.907816,11.835841,1.3825672,42.24669,2.4562635,1.4293472,11.926187
78.5095,-0.006617345,61,24.03445,-0.004167013,98,0.14404297,-0.009780884,59.8762,-8.069117,1031.6881,38.901867,2.5971458,11.111112,-0.008275809,-0.005689028,19.907816,11.835841,1.3825672,42.24669,2.4562635,1.4293472,11.926187
78.5095,-0.0104946345,61,23.966816,-0.007929638,98,0.14404297,-0.009780884,59.8762,-8.069117,1031.6881,38.901867,2.5971458,11.111112,-0.008237314,-0.0056524696,19.907816,11.835841,1.3825672,42.24669,2.4562635,1.4293472,11.926187
78.5095,-0.010931231,61,23.94427,-0.008249827,98,0.14404297,-0.009780884,59.8762,-8.069117,1031.6881,38.901867,2.5971458,11.111112,-0.008212196,-0.0056288526,19.907816,11.835841,1.3825672,42.24669,2.4562635,1.4293472,11.926187
78.67063,-0.007809095,61,23.989363,-0.005129099,98,0.16113281,0.017089844,59.8762,-8.069117,1031.6881,38.901867,2.5971458,11.111112,-0.008194256,-0.0056121424,19.907816,11.835841,1.3825672,42.24669,2.4562635,1.4293472,11.926187
78.67063,-0.004965909,61,23.92172,-0.0024411678,98,0.16113281,0.017089844,59.8762,-8.069117,1031.6881,38.901867,2.5971458,11.111112,-0.008163643,-0.005583349,19.907816,11.835841,1.3825672,42.24669,2.4562635,1.4293472,11.926187
78.67063,-0.006421812,61,24.011908,-0.003980331,98,0.16113281,0.017089844,59.8762,-8.069117,1031.6881,38.901867,2.5971458,11.111112,-0.008124537,-0.0055460124,19.907816,11.835841,1.3825672,42.24669,2.4562635,1.4293472,11.926187
78.90013,-0.010317296,61,24.011908,-0.0077594966,98,0.22949982,0.068374634,59.8762,-8.069117,1031.6881,38.901867,2.5971458,11.111112,-0.008089068,-0.005511984,19.907816,11.835841,1.3825672,42.24669,2.4562635,1.4293472,11.926187
78.90013,-0.010802373,61,23.94427,-0.008126423,98,0.22949982,0.068374634,59.8762,-8.069117,1031.6881,38.901867,2.5971458,11.111112,-0.008063297,-0.0054873037,19.907816,11.835841,1.3825672,42.24669,2.4562635,1.4293472,11.926187
78.90013,-0.0077130497,61,23.966816,-0.005036786,98,0.22949982,0.068374634,59.8762,-8.069117,1031.6881,38.901867,2.5971458,11.111112,-0.008044088,-0.005468841,19.907816,11.835841,1.3825672,42.24669,2.4562635,1.4293472,11.926187
79.273674,-0.004825294,61,23.966816,-0.0023050457,98,0.3735428,0.14404297,59.8762,-8.069117,1031.6881,38.901867,2.5971458,11.111112,-0.008015965,-0.0054416168,19.907816,11.835841,1.3825672,42.24669,2.4562635,1.4293472,11.926187
79.273674,-0.006261438,61,23.966816,-0.0038229525,98,0.3735428,0.14404297,59.8762,-8.069117,1031.6881,38.901867,2.5971458,11.111112,-0.00798389,-0.005410141,19.907816,11.835841,1.3825672,42.24669,2.4562635,1.4293472,11.926187
79.273674,-0.010145836,61,24.056995,-0.007590629,98,0.3735428,0.14404297,59.8762,-8.069117,1031.6881,38.901867,2.5971458,11.111112,-0.007949598,-0.0053763674,19.907816,11.835841,1.3825672,42.24669,2.4562635,1.4293472,11.926187
79.273674,-0.010693878,61,23.94427,-0.008017503,98,0.3735428,0.14404297,59.8762,-8.069117,1031.6881,38.901867,2.5971458,11.111112,-0.007927899,-0.0053545833,19.907816,11.835841,1.3825672,42.24669,2.4562635,1.4293472,11.926187
79.84741,-0.0076447874,61,23.92172,-0.004964076,98,0.5737381,0.20019531,59.8762,-8.069117,1031.6881,38.901867,2.5971458,11.111112,-0.007914247,-0.005340041,19.907816,11.835841,1.3825672,42.24669,2.4562635,1.4293472,11.926187
79.84741,-0.004706964,61,24.011908,-0.00218077,98,0.5737381,0.20019531,59.8762,-8.069117,1031.6881,38.901867,2.5971458,11.111112,-0.007890581,-0.005315186,19.907816,11.835841,1.3825672,42.24669,2.4562635,1.4293472,11.926187
79.84741,-0.0060937107,61,23.94427,-0.003646396,98,0.5737381,0.20019531,59.8762,-8.069117,1031.6881,38.901867,2.5971458,11.111112,-0.007857035,-0.005279875,19.907816,11.835841,1.3825672,42.24669,2.4562635,1.4293472,11.926187
80.62623,-0.0099931285,61,23.989363,-0.007426657,98,0.7788162,0.20507813,59.8762,-8.069117,1031.6881,38.901867,2.5971458,11.111112,-0.007826494,-0.0052470802,19.907816,11.835841,1.3825672,42.24669,2.4562635,1.4293472,11.926187
80.62623,-0.010604471,61,24.03445,-0.007912159,98,0.7788162,0.20507813,59.8762,-8.069117,1031.6881,38.901867,2.5971458,11.111112,-0.007808612,-0.005226012,19.907816,11.835841,1.3825672,42.24669,2.4562635,1.4293472,11.926187
80.62623,-0.007586986,61,23.92172,-0.004884124,98,0.7788162,0.20507813,59.8762,-8.069117,1031.6881,38.901867,2.5971458,11.111112,-0.007797052,-0.005210021,19.907816,11.835841,1.3825672,42.24669,2.4562635,1.4293472,11.926187
80.62623,-0.0045928136,61,23.966816,-0.0020417422,98,0.7788162,0.20507813,59.8762,-8.069117,1031.6881,38.901867,2.5971458,11.111112,-0.007774222,-0.0051822155,19.907816,11.835841,1.3825672,42.24669,2.4562635,1.4293472,11.926187
81.58816,-0.00594306,61,24.011908,-0.0034680292,98,0.9619293,0.18312073,59.8762,-8.069117,1031.6881,38.901867,2.5971458,11.111112,-0.007744092,-0.005146542,19.907816,11.835841,1.3825672,42.24669,2.4562635,1.4293472,11.926187
81.58816,-0.00984782,61,23.966816,-0.007251151,98,0.9619293,0.18312073,59.8762,-8.069117,1031.6881,38.901867,2.5971458,11.111112,-0.00771503,-0.005111441,19.907816,11.835841,1.3825672,42.24669,2.4562635,1.4293472,11.926187
81.58816,-0.010502368,61,24.011908,-0.007776171,98,0.9619293,0.18312073,59.8762,-8.069117,1031.6881,38.901867,2.5971458,11.111112,-0.0076946095,-0.0050842436,19.907816,11.835841,1.3825672,42.24669,2.4562635,1.4293472,11.926187
82.62821,-0.0075154603,61,23.94427,-0.004774958,98,1.0400543,0.078125,59.8762,-8.069117,1031.6881,38.901867,2.5971458,11.111112,-0.0076803043,-0.00506241,19.907816,11.835841,1.3825672,42.24669,2.4562635,1.4293472,11.926187
82.62821,-0.004483804,61,23.94427,-0.0018938854,98,1.0400543,0.078125,59.8762,-8.069117,1031.6881,38.901867,2.5971458,11.111112,-0.0076585026,-0.005032839,19.907816,11.835841,1.3825672,42.24669,2.4562635,1.4293472,11.926187
82.62821,-0.0057977512,61,24.03445,-0.0032812357,98,1.0400543,0.078125,59.8762,-8.069117,1031.6881,38.901867,2.5971458,11.111112,-0.0076294406,-0.00499548,19.907816,11.835841,1.3825672,42.24669,2.4562635,1.4293472,11.926187
83.59014,-0.009680897,61,23.989363,-0.007042274,98,0.9619293,-0.078125,59.8762,-8.069117,1031.6881,38.901867,2.5971458,11.111112,-0.0075960564,-0.004953705,19.907816,11.835841,1.3825672,42.24669,2.4562635,1.4293472,11.926187
83.59014,-0.010406658,61,23.94427,-0.007635176,98,0.9619293,-0.078125,59.8762,-8.069117,1031.6881,38.901867,2.5971458,11.111112,-0.007576914,-0.0049255057,19.907816,11.835841,1.3825672,42.24669,2.4562635,1.4293472,11.926187
83.59014,-0.0074499696,61,24.011908,-0.0046631545,98,0.9619293,-0.078125,59.8762,-8.069117,1031.6881,38.901867,2.5971458,11.111112,-0.007563816,-0.004903145,19.907816,11.835841,1.3825672,42.24669,2.4562635,1.4293472,11.926187
84.332344,-0.004366055,61,23.94427,-0.0017333776,98,0.74220276,-0.21972656,59.8762,-8.069117,1031.6881,38.901867,2.5971458,11.111112,-0.0075402665,-0.004871044,19.907816,11.835841,1.3825672,42.24669,2.4562635,1.4293472,11.926187
84.332344,-0.00564263,61,23.966816,-0.0030829087,98,0.74220276,-0.21972656,59.8762,-8.069117,1031.6881,38.901867,2.5971458,11.111112,-0.0075092423,-0.0048313783,19.907816,11.835841,1.3825672,42.24669,2.4562635,1.4293472,11.926187
84.332344,-0.0095236525,61,24.056995,-0.00683894,98,0.74220276,-0.21972656,59.8762,-8.069117,1031.6881,38.901867,2.5971458,11.111112,-0.0074777934,-0.0047907117,19.907816,11.835841,1.3825672,42.24669,2.4562635,1.4293472,11.926187
84.332344,-0.010302186,61,23.94427,-0.0074839443,98,0.74220276,-0.21972656,59.8762,-8.069117,1031.6881,38.901867,2.5971458,11.111112,-0.0074568987,-0.004760465,19.907816,11.835841,1.3825672,42.24669,2.4562635,1.4293472,11.926187
84.7596,-0.007376611,61,23.92172,-0.00455001,98,0.42725372,-0.31495667,59.8762,-8.069117,1031.6881,38.901867,2.5971458,11.111112,-0.007442227,-0.0047378363,19.907816,11.835841,1.3825672,42.24669,2.4562635,1.4293472,11.926187
84.7596,-0.004241422,61,23.989363,-0.0015789717,98,0.42725372,-0.31495667,59.8762,-8.069117,1031.6881,38.901867,2.5971458,11.111112,-0.0074173003,-0.004706955,19.907816,11.835841,1.3825672,42.24669,2.4562635,1.4293472,11.926187
84.7596,-0.005488023,61,23.94427,-0.002899222,98,0.42725372,-0.31495667,59.8762,-8.069117,1031.6881,38.901867,2.5971458,11.111112,-0.007386379,-0.0046702176,19.907816,11.835841,1.3825672,42.24669,2.4562635,1.4293472,11.926187
84.84505,-0.009357244,61,24.011908,-0.0066395625,98,0.08544922,-0.34179688,59.8762,-8.069117,1031.6881,38.901867,2.5971458,11.111112,-0.007353097,-0.004630342,19.907816,11.835841,1.3825672,42.24669,2.4562635,1.4293472,11.926187
84.84505,-0.010191858,61,23.989363,-0.0073418543,98,0.08544922,-0.34179688,59.8762,-8.069117,1031.6881,38.901867,2.5971458,11.111112,-0.007331032,-0.004601924,19.907816,11.835841,1.3825672,42.24669,2.4562635,1.4293472,11.926187
84.84505,-0.0072958767,61,23.92172,-0.0044472367,98,0.08544922,-0.34179688,59.8762,-8.069117,1031.6881,38.901867,2.5971458,11.111112,-0.0073148846,-0.0045813695,19.907816,11.835841,1.3825672,42.24669,2.4562635,1.4293472,11.926187
84.84505,-0.0041052327,61,24.011908,-0.0014329925,98,0.08544922,-0.34179688,59.8762,-8.069117,1031.6881,38.901867,2.5971458,11.111112,-0.007287647,-0.004552174,19.907816,11.835841,1.3825672,42.24669,2.4562635,1.4293472,11.926187
84.63264,-0.0052995533,61,23.989363,-0.0027019233,98,-0.21240997,-0.29785156,59.8762,-8.069117,1031.6881,38.901867,2.5971458,11.111112,-0.0072499528,-0.0045127138,19.907816,11.835841,1.3825672,42.24669,2.4562635,1.4293472,11.926187
84.63264,-0.00916817,61,23.966816,-0.006438285,98,-0.21240997,-0.29785156,59.8762,-8.069117,1031.6881,38.901867,2.5971458,11.111112,-0.0072121383,-0.0044724583,19.907816,11.835841,1.3825672,42.24669,2.4562635,1.4293472,11.926187
84.63264,-0.010069437,61,24.03445,-0.0072062463,98,-0.21240997,-0.29785156,59.8762,-8.069117,1031.6881,38.901867,2.5971458,11.111112,-0.0071876543,-0.0044453368,19.907816,11.835841,1.3825672,42.24669,2.4562635,1.4293472,11.926187
84.227356,-0.0072036088,61,23.94427,-0.0043490008,98,-0.40528107,-0.1928711,59.8762,-8.069117,1031.6881,38.901867,2.5971458,11.111112,-0.0071692006,-0.0044256896,19.907816,11.835841,1.3825672,42.24669,2.4562635,1.4293472,11.926187
84.227356,-0.003953062,61,23.92172,-0.0012868121,98,-0.40528107,-0.1928711,59.8762,-8.069117,1031.6881,38.901867,2.5971458,11.111112,-0.0071387663,-0.0043964535,19.907816,11.835841,1.3825672,42.24669,2.4562635,1.4293472,11.926187
84.227356,-0.005109608,61,24.056995,-0.002517119,98,-0.40528107,-0.1928711,59.8762,-8.069117,1031.6881,38.901867,2.5971458,11.111112,-0.0071007772,-0.0043594926,19.907816,11.835841,1.3825672,42.24669,2.4562635,1.4293472,11.926187
83.74151,-0.008981399,61,23.989363,-0.0062515363,98,-0.48584747,-0.080566406,62.73462,23.891867,1017.2054,20.684566,1.7344192,0,-0.0070634233,-0.004322143,19.907816,11.835841,1.3825672,42.24669,2.4562635,1.4293472,11.926187
83.74151,-0.009939149,61,23.94427,-0.0070756674,98,-0.48584747,-0.080566406,62.73462,23.891867,1017.2054,20.684566,1.7344192,0,-0.0070373653,-0.004296027,19.907816,11.835841,1.3825672,42.24669,2.4562635,1.4293472,11.926187
83.74151,-0.007096477,61,24.011908,-0.0042479485,98,-0.48584747,-0.080566406,62.73462,23.891867,1017.2054,20.684566,1.7344192,0,-0.0070159393,-0.004275817,19.907816,11.835841,1.3825672,42.24669,2.4562635,1.4293472,11.926187
83.265434,-0.0037928,61,23.92172,-0.001142621,98,-0.47607422,0.009780884,62.73462,23.891867,1017.2054,20.684566,1.7344192,0,-0.006983887,-0.0042469786,19.907816,11.835841,1.3825672,42.24669,2.4562635,1.4293472,11.926187
83.265434,-0.00492429,61,23.989363,-0.0023495927,98,-0.47607422,0.009780884,62.73462,23.891867,1017.2054,20.684566,1.7344192,0,-0.006946823,-0.0042134733,19.907816,11.835841,1.3825672,42.24669,2.4562635,1.4293472,11.926187
83.265434,-0.00878495,61,23.989363,-0.006069973,98,-0.47607422,0.009780884,62.73462,23.891867,1017.2054,20.684566,1.7344192,0,-0.0069075334,-0.0041771606,19.907816,11.835841,1.3825672,42.24669,2.4562635,1.4293472,11.926187
83.265434,-0.009801909,61,23.94427,-0.0069510117,98,-0.47607422,0.009780884,62.73462,23.891867,1017.2054,20.684566,1.7344192,0,-0.0068800854,-0.0041522295,19.907816,11.835841,1.3825672,42.24669,2.4562635,1.4293472,11.926187
82.80156,-0.00699234,61,23.989363,-0.0041635484,98,-0.46387482,0.012191772,62.73462,23.891867,1017.2054,20.684566,1.7344192,0,-0.006859258,-0.0041353493,19.907816,11.835841,1.3825672,42.24669,2.4562635,1.4293472,11.926187
82.80156,-0.0036401376,61,23.94427,-0.0010225251,98,-0.46387482,0.012191772,62.73462,23.891867,1017.2054,20.684566,1.7344192,0,-0.0068287253,-0.0041113305,19.907816,11.835841,1.3825672,42.24669,2.4562635,1.4293472,11.926187
82.80156,-0.0047183856,61,23.94427,-0.0021772385,98,-0.46387482,0.012191772,62.73462,23.891867,1017.2054,20.684566,1.7344192,0,-0.0067875446,-0.0040768594,19.907816,11.835841,1.3825672,42.24669,2.4562635,1.4293472,11.926187
82.37675,-0.008583091,61,24.079538,-0.005896881,98,-0.42481232,0.0390625,62.73462,23.891867,1017.2054,20.684566,1.7344192,0,-0.0067471727,-0.0040422413,19.907816,11.835841,1.3825672,42.24669,2.4562635,1.4293472,11.926187
82.37675,-0.009662926,61,23.966816,-0.0068375766,98,-0.42481232,0.0390625,62.73462,23.891867,1017.2054,20.684566,1.7344192,0,-0.0067193764,-0.0040195542,19.907816,11.835841,1.3825672,42.24669,2.4562635,1.4293472,11.926187
82.37675,-0.0068841353,61,23.92172,-0.0040877312,98,-0.42481232,0.0390625,62.73462,23.891867,1017.2054,20.684566,1.7344192,0,-0.0066977353,-0.0040043904,19.907816,11.835841,1.3825672,42.24669,2.4562635,1.4293472,11.926187
82.37675,-0.0034805462,61,24.03445,-0.00090446323,98,-0.42481232,0.0390625,62.73462,23.891867,1017.2054,20.684566,1.7344192,0,-0.006665817,-0.003980778,19.907816,11.835841,1.3825672,42.24669,2.4562635,1.4293472,11.926187
82.022736,-0.0045248643,61,23.966816,-0.0020256042,98,-0.35401154,0.07080078,62.73462,23.891867,1017.2054,20.684566,1.7344192,0,-0.0066271126,-0.0039504515,19.907816,11.835841,1.3825672,42.24669,2.4562635,1.4293472,11.926187
82.022736,-0.008385479,61,23.989363,-0.0057395473,98,-0.35401154,0.07080078,62.73462,23.891867,1017.2054,20.684566,1.7344192,0,-0.0065875906,-0.0039189844,19.907816,11.835841,1.3825672,42.24669,2.4562635,1.4293472,11.926187
82.022736,-0.009524368,61,24.03445,-0.0067373514,98,-0.35401154,0.07080078,62.73462,23.891867,1017.2054,20.684566,1.7344192,0,-0.0065598786,-0.0038989396,19.907816,11.835841,1.3825672,42.24669,2.4562635,1.4293472,11.926187
81.75174,-0.006774746,61,23.92172,-0.004016988,98,-0.2709961,0.08300781,62.73462,23.891867,1017.2054,20.684566,1.7344192,0,-0.006538001,-0.003884791,19.907816,11.835841,1.3825672,42.24669,2.4562635,1.4293472,11.926187
81.75174,-0.0033239722,61,23.94427,-0.00079279393,98,-0.2709961,0.08300781,62.73462,23.891867,1017.2054,20.684566,1.7344192,0,-0.006506686,-0.0038624571,19.907816,11.835841,1.3825672,42.24669,2.4562635,1.4293472,11.926187
81.75174,-0.0043318793,61,24.03445,-0.001880765,98,-0.2709961,0.08300781,62.73462,23.891867,1017.2054,20.684566,1.7344192,0,-0.006468089,-0.0038334893,19.907816,11.835841,1.3825672,42.24669,2.4562635,1.4293472,11.926187
81.53933,-0.00818865,61,23.966816,-0.0055893213,98,-0.21240997,0.05859375,62.73462,23.891867,1017.2054,20.684566,1.7344192,0,-0.006428723,-0.0038034439,19.907816,11.835841,1.3825672,42.24669,2.4562635,1.4293472,11.926187
81.53933,-0.009388782,61,23.989363,-0.006645128,98,-0.21240997,0.05859375,62.73462,23.891867,1017.2054,20.684566,1.7344192,0,-0.006401606,-0.0037849993,19.907816,11.835841,1.3825672,42.24669,2.4562635,1.4293472,11.926187
81.53933,-0.006679885,61,23.989363,-0.003966585,98,-0.21240997,0.05859375,62.73462,23.891867,1017.2054,20.684566,1.7344192,0,-0.006382634,-0.0037749186,19.907816,11.835841,1.3825672,42.24669,2.4562635,1.4293472,11.926187
81.53933,-0.0031878501,61,23.94427,-0.00070700794,98,-0.21240997,0.05859375,62.73462,23.891867,1017.2054,20.684566,1.7344192,0,-0.0063554095,-0.0037577616,19.907816,11.835841,1.3825672,42.24669,2.4562635,1.4293472,11.926187
81.38552,-0.004141867,61,24.011908,-0.0017429218,98,-0.1538086,0.05860901,62.73462,23.891867,1017.2054,20.684566,1.7344192,0,-0.006317407,-0.0037301928,19.907816,11.835841,1.3825672,42.24669,2.4562635,1.4293472,11.926187
81.38552,-0.007975817,61,24.011908,-0.0054319426,98,-0.1538086,0.05860901,62.73462,23.891867,1017.2054,20.684566,1.7344192,0,-0.0062748403,-0.003698717,19.907816,11.835841,1.3825672,42.24669,2.4562635,1.4293472,11.926187
81.38552,-0.009254426,61,23.94427,-0.0065649524,98,-0.1538086,0.05860901,62.73462,23.891867,1017.2054,20.684566,1.7344192,0,-0.006247969,-0.003682682,19.907816,11.835841,1.3825672,42.24669,2.4562635,1.4293472,11.926187
81.2781,-0.0065833256,61,23.989363,-0.0039232895,98,-0.107421875,0.04638672,62.73462,23.891867,1017.2054,20.684566,1.7344192,0,-0.006228657,-0.0036740229,19.907816,11.835841,1.3825672,42.24669,2.4562635,1.4293472,11.926187
81.2781,-0.0030461177,61,23.966816,-0.00062108785,98,-0.107421875,0.04638672,62.73462,23.891867,1017.2054,20.684566,1.7344192,0,-0.006200311,-0.0036568388,19.907816,11.835841,1.3825672,42.24669,2.4562635,1.4293472,11.926187
81.2781,-0.0039539784,61,23.94427,-0.0016145334,98,-0.107421875,0.04638672,62.73462,23.891867,1017.2054,20.684566,1.7344192,0,-0.006162733,-0.0036311613,19.907816,11.835841,1.3825672,42.24669,2.4562635,1.4293472,11.926187
81.22682,-0.007777892,61,24.079538,-0.0053000897,98,-0.05127716,0.056137085,62.73462,23.891867,1017.2054,20.684566,1.7344192,0,-0.006123148,-0.0036047907,19.907816,11.835841,1.3825672,42.24669,2.4562635,1.4293472,11.926187
81.22682,-0.009110123,61,23.966816,-0.0064869,98,-0.05127716,0.056137085,62.73462,23.891867,1017.2054,20.684566,1.7344192,0,-0.0060942876,-0.00358918,19.907816,11.835841,1.3825672,42.24669,2.4562635,1.4293472,11.926187
81.22682,-0.006475769,61,23.92172,-0.0038806424,98,-0.05127716,0.056137085,62.73462,23.891867,1017.2054,20.684566,1.7344192,0,-0.006072776,-0.0035806508,19.907816,11.835841,1.3825672,42.24669,2.4562635,1.4293472,11.926187
81.22682,-0.0029000714,61,24.011908,-0.00054178387,98,-0.05127716,0.056137085,62.73462,23.891867,1017.2054,20.684566,1.7344192,0,-0.006043567,-0.00356479,19.907816,11.835841,1.3825672,42.24669,2.4562635,1.4293472,11.926187
81.25124,-0.0037694424,61,23.966816,-0.0015020818,98,0.024421692,0.07569885,62.73462,23.891867,1017.2054,20.684566,1.7344192,0,-0.0060066595,-0.0035422996,19.907816,11.835841,1.3825672,42.24669,2.4562635,1.4293472,11.926187
81.25124,-0.007569328,61,23.966816,-0.005171858,98,0.024421692,0.07569885,62.73462,23.891867,1017.2054,20.684566,1.7344192,0,-0.005964947,-0.0035166533,19.907816,11.835841,1.3825672,42.24669,2.4562635,1.4293472,11.926187
81.25124,-0.00895527,61,24.03445,-0.0064137876,98,0.024421692,0.07569885,62.73462,23.891867,1017.2054,20.684566,1.7344192,0,-0.0059339763,-0.0035020306,19.907816,11.835841,1.3825672,42.24669,2.4562635,1.4293472,11.926187
81.36355,-0.006362222,61,23.92172,-0.0038475841,98,0.11230469,0.087875366,62.73462,23.891867,1017.2054,20.684566,1.7344192,0,-0.005911267,-0.0034954192,19.907816,11.835841,1.3825672,42.24669,2.4562635,1.4293472,11.926187
81.36355,-0.0027489737,61,23.966816,-0.00047446042,98,0.11230469,0.087875366,62.73462,23.891867,1017.2054,20.684566,1.7344192,0,-0.0058810473,-0.0034819543,19.907816,11.835841,1.3825672,42.24669,2.4562635,1.4293472,11.926187
81.36355,-0.0035545304,61,24.011908,-0.0013770908,98,0.11230469,0.087875366,62.73462,23.891867,1017.2054,20.684566,1.7344192,0,-0.005838065,-0.0034569562,19.907816,11.835841,1.3825672,42.24669,2.4562635,1.4293472,11.926187
81.53933,-0.007338345,61,23.966816,-0.005035892,98,0.17578125,0.06347656,62.73462,23.891867,1017.2054,20.684566,1.7344192,0,-0.0057918685,-0.003429763,19.907816,11.835841,1.3825672,42.24669,2.4562635,1.4293472,11.926187
81.53933,-0.008794472,61,23.989363,-0.006347157,98,0.17578125,0.06347656,62.73462,23.891867,1017.2054,20.684566,1.7344192,0,-0.0057597086,-0.003416437,19.907816,11.835841,1.3825672,42.24669,2.4562635,1.4293472,11.926187
81.53933,-0.006241277,61,23.966816,-0.0038204938,98,0.17578125,0.06347656,62.73462,23.891867,1017.2054,20.684566,1.7344192,0,-0.00573552,-0.003411019,19.907816,11.835841,1.3825672,42.24669,2.4562635,1.4293472,11.926187
81.73464,-0.0025894716,60,23.94427,-0.00041270256,98,0.1953125,0.01953125,62.73462,23.891867,1017.2054,20.684566,1.7344192,0,-0.005703619,-0.0033986673,19.907816,11.835841,1.3825672,42.24669,2.4562635,1.4293472,11.926187
81.73464,-0.0033561587,60,24.011908,-0.0012786761,98,0.1953125,0.01953125,62.73462,23.891867,1017.2054,20.684566,1.7344192,0,-0.005663945,-0.0033789843,19.907816,11.835841,1.3825672,42.24669,2.4562635,1.4293472,11.926187
81.73464,-0.0071152076,60,24.011908,-0.0049148574,98,0.1953125,0.01953125,62.73462,23.891867,1017.2054,20.684566,1.7344192,0,-0.0056193173,-0.0033547773,19.907816,11.835841,1.3825672,42.24669,2.4562635,1.4293472,11.926187
81.73464,-0.008618161,60,23.94427,-0.00626982,98,0.1953125,0.01953125,62.73462,23.891867,1017.2054,20.684566,1.7344192,0,-0.005584055,-0.00333931,19.907816,11.835841,1.3825672,42.24669,2.4562635,1.4293472,11.926187
81.89578,-0.00610663,60,24.011908,-0.0037851334,98,0.16114044,-0.03416443,62.73462,23.891867,1017.2054,20.684566,1.7344192,0,-0.005557126,-0.003332238,19.907816,11.835841,1.3825672,42.24669,2.4562635,1.4293472,11.926187
81.89578,-0.002420716,60,23.94427,-0.00034799427,98,0.16114044,-0.03416443,62.73462,23.891867,1017.2054,20.684566,1.7344192,0,-0.005523375,-0.0033192963,19.907816,11.835841,1.3825672,42.24669,2.4562635,1.4293472,11.926187
81.89578,-0.0031413585,60,23.966816,-0.0011702031,98,0.16114044,-0.03416443,62.73462,23.891867,1017.2054,20.684566,1.7344192,0,-0.0054804147,-0.0032976016,19.907816,11.835841,1.3825672,42.24669,2.4562635,1.4293472,11.926187
81.986115,-0.006877832,60,24.03445,-0.004784949,98,0.09033203,-0.07080078,62.73462,23.891867,1017.2054,20.684566,1.7344192,0,-0.0054329396,-0.00327162,19.907816,11.835841,1.3825672,42.24669,2.4562635,1.4293472,11.926187
81.986115,-0.008439995,60,23.94427,-0.0061974227,98,0.09033203,-0.07080078,62.73462,23.891867,1017.2054,20.684566,1.7344192,0,-0.0053973063,-0.0032571405,19.907816,11.835841,1.3825672,42.24669,2.4562635,1.4293472,11.926187
81.986115,-0.005963646,60,23.94427,-0.0037485212,98,0.09033203,-0.07080078,62.73462,23.891867,1017.2054,20.684566,1.7344192,0,-0.0053687096,-0.0032498182,19.907816,11.835841,1.3825672,42.24669,2.4562635,1.4293472,11.926187
81.986115,-0.0022471547,60,24.011908,-0.0002856776,98,0.09033203,-0.07080078,62.73462,23.891867,1017.2054,20.684566,1.7344192,0,-0.0053339973,-0.0032373548,19.907816,11.835841,1.3825672,42.24669,2.4562635,1.4293472,11.926187
81.97879,-0.0029145777,60,23.966816,-0.0010577068,98,-0.0073242188,-0.09765625,62.73462,23.891867,1017.2054,20.684566,1.7344192,0,-0.0052886414,-0.0032148554,19.907816,11.835841,1.3825672,42.24669,2.4562635,1.4293472,11.926187
81.97879,-0.006623581,60,24.03445,-0.0046493635,98,-0.0073242188,-0.09765625,62.73462,23.891867,1017.2054,20.684566,1.7344192,0,-0.005237791,-0.0031877384,19.907816,11.835841,1.3825672,42.24669,2.4562635,1.4293472,11.926187
81.97879,-0.008242965,60,23.966816,-0.0061182976,98,-0.0073242188,-0.09765625,62.73462,23.891867,1017.2054,20.684566,1.7344192,0,-0.005198385,-0.0031719133,19.907816,11.835841,1.3825672,42.24669,2.4562635,1.4293472,11.926187
81.87869,-0.00581713,60,23.92172,-0.0037200004,98,-0.100097656,-0.09277344,62.73462,23.891867,1017.2054,20.684566,1.7344192,0,-0.005169082,-0.0031662092,19.907816,11.835841,1.3825672,42.24669,2.4562635,1.4293472,11.926187
81.87869,-0.0020634234,60,24.03445,-0.00022275746,98,-0.100097656,-0.09277344,62.73462,23.891867,1017.2054,20.684566,1.7344192,0,-0.0051323357,-0.0031536252,19.907816,11.835841,1.3825672,42.24669,2.4562635,1.4293472,11.926187
81.87869,-0.0026821867,60,23.966816,-0.0009499267,98,-0.100097656,-0.09277344,62.73462,23.891867,1017.2054,20.684566,1.7344192,0,-0.005085857,-0.0031320693,19.907816,11.835841,1.3825672,42.24669,2.4562635,1.4293472,11.926187
81.70779,-0.0063713193,60,23.966816,-0.004524708,98,-0.17090607,-0.07080078,62.73462,23.891867,1017.2054,20.684566,1.7344192,0,-0.005035405,-0.003107138,19.907816,11.835841,1.3825672,42.24669,2.4562635,1.4293472,11.926187
81.70779,-0.008046448,60,24.03445,-0.0060471073,98,-0.17090607,-0.07080078,62.73462,23.891867,1017.2054,20.684566,1.7344192,0,-0.004996102,-0.0030929,19.907816,11.835841,1.3825672,42.24669,2.4562635,1.4293472,11.926187
81.70779,-0.0056493133,60,23.92172,-0.0036758333,98,-0.17090607,-0.07080078,62.73462,23.891867,1017.2054,20.684566,1.7344192,0,-0.0049625384,-0.0030840666,19.907816,11.835841,1.3825672,42.24669,2.4562635,1.4293472,11.926187
81.444115,-0.0018658116,60,23.94427,-0.00014875084,98,-0.26367188,-0.09275818,62.73462,23.891867,1017.2054,20.684566,1.7344192,0,-0.004923016,-0.0030692653,19.907816,11.835841,1.3825672,42.24669,2.4562635,1.4293472,11.926187
81.444115,-0.0024410784,60,24.011908,-0.0008331388,98,-0.26367188,-0.09275818,62.73462,23.891867,1017.2054,20.684566,1.7344192,0,-0.0048747943,-0.0030459077,19.907816,11.835841,1.3825672,42.24669,2.4562635,1.4293472,11.926187
81.444115,-0.0061152577,60,23.966816,-0.0043938383,98,-0.26367188,-0.09275818,62.73462,23.891867,1017.2054,20.684566,1.7344192,0,-0.004823582,-0.0030197338,19.907816,11.835841,1.3825672,42.24669,2.4562635,1.4293472,11.926187
81.444115,-0.0078541115,60,23.989363,-0.0059752464,98,-0.26367188,-0.09275818,62.73462,23.891867,1017.2054,20.684566,1.7344192,0,-0.0047851144,-0.0030053617,19.907816,11.835841,1.3825672,42.24669,2.4562635,1.4293472,11.926187
81.092545,-0.0055039153,60,23.966816,-0.0036442056,98,-0.35157013,-0.087905884,62.73462,23.891867,1017.2054,20.684566,1.7344192,0,-0.004756035,-0.002999036,19.907816,11.835841,1.3825672,42.24669,2.4562635,1.4293472,11.926187
81.092545,-0.0016959384,60,23.92172,-8.824468E-05,98,-0.35157013,-0.087905884,62.73462,23.891867,1017.2054,20.684566,1.7344192,0,-0.00472206,-0.0029869347,19.907816,11.835841,1.3825672,42.24669,2.4562635,1.4293472,11.926187
81.092545,-0.0022197962,60,24.011908,-0.0007185191,98,-0.35157013,-0.087905884,62.73462,23.891867,1017.2054,20.684566,1.7344192,0,-0.0046778037,-0.002964011,19.907816,11.835841,1.3825672,42.24669,2.4562635,1.4293472,11.926187
80.726326,-0.005867064,60,24.011908,-0.0042527765,98,-0.36621857,-0.0146484375,62.73462,23.891867,1017.2054,20.684566,1.7344192,0,-0.004628165,-0.0029357986,19.907816,11.835841,1.3825672,42.24669,2.4562635,1.4293472,11.926187
80.726326,-0.0076784715,60,23.94427,-0.005900547,98,-0.36621857,-0.0146484375,62.73462,23.891867,1017.2054,20.684566,1.7344192,0,-0.004593037,-0.0029208586,19.907816,11.835841,1.3825672,42.24669,2.4562635,1.4293472,11.926187
80.726326,-0.005373068,60,23.989363,-0.0036077276,98,-0.36621857,-0.0146484375,62.73462,23.891867,1017.2054,20.684566,1.7344192,0,-0.004566868,-0.002913563,19.907816,11.835841,1.3825672,42.24669,2.4562635,1.4293472,11.926187
80.726326,-0.0015239641,60,23.966816,-6.906688E-06,98,-0.36621857,-0.0146484375,62.73462,23.891867,1017.2054,20.684566,1.7344192,0,-0.0045324727,-0.0028972954,19.907816,11.835841,1.3825672,42.24669,2.4562635,1.4293472,11.926187
80.413826,-0.0019968152,60,23.966816,-0.00058440864,98,-0.3125,0.053726196,62.73462,23.891867,1017.2054,20.684566,1.7344192,0,-0.004487877,-0.0028704733,19.907816,11.835841,1.3825672,42.24669,2.4562635,1.4293472,11.926187
80.413826,-0.005648285,60,24.079538,-0.004120633,98,-0.3125,0.053726196,62.73462,23.891867,1017.2054,20.684566,1.7344192,0,-0.004444121,-0.0028440447,19.907816,11.835841,1.3825672,42.24669,2.4562635,1.4293472,11.926187
80.413826,-0.0075255185,60,23.966816,-0.0058265626,98,-0.3125,0.053726196,62.73462,23.891867,1017.2054,20.684566,1.7344192,0,-0.00441353,-0.0028292479,19.907816,11.835841,1.3825672,42.24669,2.4562635,1.4293472,11.926187
80.16235,-0.0052486137,60,23.92172,-0.0035553798,98,-0.25147247,0.061019897,62.73462,23.891867,1017.2054,20.684566,1.7344192,0,-0.0043886392,-0.0028187782,19.907816,11.835841,1.3825672,42.24669,2.4562635,1.4293472,11.926187
80.16235,-0.0013710782,60,24.03445,7.711351E-05,98,-0.25147247,0.061019897,62.73462,23.891867,1017.2054,20.684566,1.7344192,0,-0.004358062,-0.002801974,19.907816,11.835841,1.3825672,42.24669,2.4562635,1.4293472,11.926187
80.16235,-0.0018093064,60,23.966816,-0.00046288222,98,-0.25147247,0.061019897,62.73462,23.891867,1017.2054,20.684566,1.7344192,0,-0.0043205605,-0.0027776689,19.907816,11.835841,1.3825672,42.24669,2.4562635,1.4293472,11.926187
79.98413,-0.0054366365,60,24.011908,-0.0039752573,98,-0.17822266,0.07324219,62.73462,23.891867,1017.2054,20.684566,1.7344192,0,-0.004278231,-0.0027485937,19.907816,11.835841,1.3825672,42.24669,2.4562635,1.4293472,11.926187
79.98413,-0.007393576,60,24.011908,-0.0057560876,98,-0.17822266,0.07324219,62.73462,23.891867,1017.2054,20.684566,1.7344192,0,-0.0042518424,-0.0027344988,19.907816,11.835841,1.3825672,42.24669,2.4562635,1.4293472,11.926187
79.98413,-0.005143851,60,23.92172,-0.0035077035,98,-0.17822266,0.07324219,62.73462,23.891867,1017.2054,20.684566,1.7344192,0,-0.00423089,-0.0027249635,19.907816,11.835841,1.3825672,42.24669,2.4562635,1.4293472,11.926187
79.86206,-0.0012256578,60,23.989363,0.00016629696,98,-0.12207031,0.056152344,62.73462,23.891867,1017.2054,20.684566,1.7344192,0,-0.0042018057,-0.0027071268,19.907816,11.835841,1.3825672,42.24669,2.4562635,1.4293472,11.926187
79.86206,-0.0016044527,60,23.989363,-0.00031598657,98,-0.12207031,0.056152344,62.73462,23.891867,1017.2054,20.684566,1.7344192,0,-0.004160835,-0.0026777477,19.907816,11.835841,1.3825672,42.24669,2.4562635,1.4293472,11.926187
79.86206,-0.0052392706,60,23.966816,-0.0038337037,98,-0.12207031,0.056152344,62.73462,23.891867,1017.2054,20.684566,1.7344192,0,-0.0041213618,-0.002649437,19.907816,11.835841,1.3825672,42.24669,2.4562635,1.4293472,11.926187
79.86206,-0.0072610527,60,23.989363,-0.005672492,98,-0.12207031,0.056152344,62.73462,23.891867,1017.2054,20.684566,1.7344192,0,-0.0040948573,-0.0026327178,19.907816,11.835841,1.3825672,42.24669,2.4562635,1.4293472,11.926187
79.75708,-0.0050441176,60,23.966816,-0.003457345,98,-0.10498047,0.017089844,62.73462,23.891867,1017.2054,20.684566,1.7344192,0,-0.00407491,-0.002622646,19.907816,11.835841,1.3825672,42.24669,2.4562635,1.4293472,11.926187
79.75708,-0.0010893568,60,23.94427,0.00024544448,98,-0.10498047,0.017089844,62.73462,23.891867,1017.2054,20.684566,1.7344192,0,-0.0040476504,-0.0026068166,19.907816,11.835841,1.3825672,42.24669,2.4562635,1.4293472,11.926187
79.75708,-0.001429081,60,24.011908,-0.00019852817,98,-0.10498047,0.017089844,62.73462,23.891867,1017.2054,20.684566,1.7344192,0,-0.004012576,-0.002583325,19.907816,11.835841,1.3825672,42.24669,2.4562635,1.4293472,11.926187
79.64721,-0.005043134,60,23.989363,-0.0036931783,98,-0.10987091,-0.0048828125,62.73462,23.891867,1017.2054,20.684566,1.7344192,0,-0.0039733485,-0.00255522,19.907816,11.835841,1.3825672,42.24669,2.4562635,1.4293472,11.926187
79.64721,-0.007137157,60,23.94427,-0.0055970103,98,-0.10987091,-0.0048828125,62.73462,23.891867,1017.2054,20.684566,1.7344192,0,-0.0039485693,-0.0025401234,19.907816,11.835841,1.3825672,42.24669,2.4562635,1.4293472,11.926187
79.64721,-0.0049575493,60,24.011908,-0.0034206435,98,-0.10987091,-0.0048828125,62.73462,23.891867,1017.2054,20.684566,1.7344192,0,-0.0039312555,-0.0025327832,19.907816,11.835841,1.3825672,42.24669,2.4562635,1.4293472,11.926187
79.64721,-0.00094854087,60,23.92172,0.00033004582,98,-0.10987091,-0.0048828125,62.73462,23.891867,1017.2054,20.684566,1.7344192,0,-0.0039030926,-0.002515863,19.907816,11.835841,1.3825672,42.24669,2.4562635,1.4293472,11.926187
79.534904,-0.0012341067,60,23.966816,-6.15567E-05,98,-0.11230469,-0.0024261475,62.73462,23.891867,1017.2054,20.684566,1.7344192,0,-0.0038640976,-0.0024884685,19.907816,11.835841,1.3825672,42.24669,2.4562635,1.4293472,11.926187
79.534904,-0.0048468634,60,24.056995,-0.003552854,98,-0.11230469,-0.0024261475,62.73462,23.891867,1017.2054,20.684566,1.7344192,0,-0.0038248436,-0.0024604038,19.907816,11.835841,1.3825672,42.24669,2.4562635,1.4293472,11.926187
79.534904,-0.0070221126,60,23.94427,-0.0055327266,98,-0.11230469,-0.0024261475,62.73462,23.891867,1017.2054,20.684566,1.7344192,0,-0.0038018345,-0.0024475472,19.907816,11.835841,1.3825672,42.24669,2.4562635,1.4293472,11.926187
79.44457,-0.004870802,60,23.94427,-0.0033817515,98,-0.09033203,0.021972656,62.73462,23.891867,1017.2054,20.684566,1.7344192,0,-0.0037844852,-0.0024397688,19.907816,11.835841,1.3825672,42.24669,2.4562635,1.4293472,11.926187
79.44457,-0.0008247569,60,24.011908,0.00040599704,98,-0.09033203,0.021972656,62.73462,23.891867,1017.2054,20.684566,1.7344192,0,-0.0037597285,-0.0024245784,19.907816,11.835841,1.3825672,42.24669,2.4562635,1.4293472,11.926187
79.44457,-0.001060769,60,23.966816,6.390363E-05,98,-0.09033203,0.021972656,62.73462,23.891867,1017.2054,20.684566,1.7344192,0,-0.003725061,-0.0023994863,19.907816,11.835841,1.3825672,42.24669,2.4562635,1.4293472,11.926187
79.36889,-0.0046653897,60,24.011908,-0.00341852,98,-0.075683594,0.0146484375,62.73462,23.891867,1017.2054,20.684566,1.7344192,0,-0.0036887662,-0.0023726195,19.907816,11.835841,1.3825672,42.24669,2.4562635,1.4293472,11.926187
79.36889,-0.006901972,60,23.989363,-0.0054534674,98,-0.075683594,0.0146484375,62.73462,23.891867,1017.2054,20.684566,1.7344192,0,-0.003664738,-0.0023567677,19.907816,11.835841,1.3825672,42.24669,2.4562635,1.4293472,11.926187
79.36889,-0.0047892407,60,23.94427,-0.0033361092,98,-0.075683594,0.0146484375,62.73462,23.891867,1017.2054,20.684566,1.7344192,0,-0.0036484257,-0.0023476393,19.907816,11.835841,1.3825672,42.24669,2.4562635,1.4293472,11.926187
79.30541,-0.00072640926,60,23.966816,0.0004716888,98,-0.06347656,0.012207031,62.73462,23.891867,1017.2054,20.684566,1.7344192,0,-0.0036287562,-0.002334501,19.907816,11.835841,1.3825672,42.24669,2.4562635,1.4293472,11.926187
79.30541,-0.0009263009,60,23.989363,0.00016710162,98,-0.06347656,0.012207031,62.73462,23.891867,1017.2054,20.684566,1.7344192,0,-0.0036018626,-0.0023138614,19.907816,11.835841,1.3825672,42.24669,2.4562635,1.4293472,11.926187
79.30541,-0.0045006573,60,23.966816,-0.0032864213,98,-0.06347656,0.012207031,62.73462,23.891867,1017.2054,20.684566,1.7344192,0,-0.003568916,-0.0022874416,19.907816,11.835841,1.3825672,42.24669,2.4562635,1.4293472,11.926187
79.30541,-0.0068025067,60,23.989363,-0.0053822324,98,-0.06347656,0.012207031,62.73462,23.891867,1017.2054,20.684566,1.7344192,0,-0.003549023,-0.0022731945,19.907816,11.835841,1.3825672,42.24669,2.4562635,1.4293472,11.926187
79.28832,-0.0047381446,60,23.94427,-0.0033088624,98,-0.017089844,0.04638672,62.73462,23.891867,1017.2054,20.684566,1.7344192,0,-0.003538804,-0.002267745,19.907816,11.835841,1.3825672,42.24669,2.4562635,1.4293472,11.926187
79.28832,-0.0006444901,60,23.94427,0.0005324185,98,-0.017089844,0.04638672,62.73462,23.891867,1017.2054,20.684566,1.7344192,0,-0.00352242,-0.0022555992,19.907816,11.835841,1.3825672,42.24669,2.4562635,1.4293472,11.926187
79.28832,-0.0007904917,60,24.03445,0.00028004497,98,-0.017089844,0.04638672,62.73462,23.891867,1017.2054,20.684566,1.7344192,0,-0.003495258,-0.0022330105,19.907816,11.835841,1.3825672,42.24669,2.4562635,1.4293472,11.926187
79.31518,-0.0043384507,60,23.989363,-0.0031505004,98,0.026855469,0.043945313,62.73462,23.891867,1017.2054,20.684566,1.7344192,0,-0.0034628168,-0.0022058263,19.907816,11.835841,1.3825672,42.24669,2.4562635,1.4293472,11.926187
79.31518,-0.0067117587,60,23.966816,-0.0053145513,98,0.026855469,0.043945313,62.73462,23.891867,1017.2054,20.684566,1.7344192,0,-0.0034446672,-0.0021922903,19.907816,11.835841,1.3825672,42.24669,2.4562635,1.4293472,11.926187
79.31518,-0.0046960115,60,24.011908,-0.003286399,98,0.026855469,0.043945313,62.73462,23.891867,1017.2054,20.684566,1.7344192,0,-0.0034362406,-0.0021877976,19.907816,11.835841,1.3825672,42.24669,2.4562635,1.4293472,11.926187
79.31518,-0.0005751774,60,23.94427,0.0005810112,98,0.026855469,0.043945313,62.73462,23.891867,1017.2054,20.684566,1.7344192,0,-0.003422378,-0.002178079,19.907816,11.835841,1.3825672,42.24669,2.4562635,1.4293472,11.926187
79.35668,-0.00066661835,60,23.989363,0.00038033724,98,0.041503906,0.0146484375,62.73462,23.891867,1017.2054,20.684566,1.7344192,0,-0.0033976033,-0.0021580204,19.907816,11.835841,1.3825672,42.24669,2.4562635,1.4293472,11.926187
79.35668,-0.0041950643,60,24.056995,-0.0030335113,98,0.041503906,0.0146484375,62.73462,23.891867,1017.2054,20.684566,1.7344192,0,-0.003368926,-0.0021346228,19.907816,11.835841,1.3825672,42.24669,2.4562635,1.4293472,11.926187
79.35668,-0.0066288114,60,23.94427,-0.0052546486,98,0.041503906,0.0146484375,62.73462,23.891867,1017.2054,20.684566,1.7344192,0,-0.0033523366,-0.0021226422,19.907816,11.835841,1.3825672,42.24669,2.4562635,1.4293472,11.926187
79.38354,-0.004648894,60,23.966816,-0.0032612085,98,0.026855469,-0.0146484375,62.73462,23.891867,1017.2054,20.684566,1.7344192,0,-0.0033429132,-0.002117604,19.907816,11.835841,1.3825672,42.24669,2.4562635,1.4293472,11.926187
79.38354,-0.00050816685,60,23.989363,0.0006229207,98,0.026855469,-0.0146484375,62.73462,23.891867,1017.2054,20.684566,1.7344192,0,-0.003329511,-0.002109222,19.907816,11.835841,1.3825672,42.24669,2.4562635,1.4293472,11.926187
79.38354,-0.00055235624,60,23.94427,0.00046543032,98,0.026855469,-0.0146484375,62.73462,23.891867,1017.2054,20.684566,1.7344192,0,-0.0033066587,-0.0020922036,19.907816,11.835841,1.3825672,42.24669,2.4562635,1.4293472,11.926187
79.378654,-0.0040445924,60,24.03445,-0.0029150695,98,-0.0048828125,-0.03173828,62.73462,23.891867,1017.2054,20.684566,1.7344192,0,-0.0032765642,-0.0020685152,19.907816,11.835841,1.3825672,42.24669,2.4562635,1.4293472,11.926187
79.378654,-0.0065416843,60,23.966816,-0.005196914,98,-0.0048828125,-0.03173828,62.73462,23.891867,1017.2054,20.684566,1.7344192,0,-0.003259139,-0.0020569682,19.907816,11.835841,1.3825672,42.24669,2.4562635,1.4293472,11.926187
79.378654,-0.004605174,60,23.92172,-0.0032449588,98,-0.0048828125,-0.03173828,62.73462,23.891867,1017.2054,20.684566,1.7344192,0,-0.0032503947,-0.0020537183,19.907816,11.835841,1.3825672,42.24669,2.4562635,1.4293472,11.926187
79.32494,-0.0004502535,60,24.011908,0.000653252,98,-0.053710938,-0.048828125,62.73462,23.891867,1017.2054,20.684566,1.7344192,0,-0.003238812,-0.0020476521,19.907816,11.835841,1.3825672,42.24669,2.4562635,1.4293472,11.926187
79.32494,-0.00042043626,60,23.989363,0.00056614727,98,-0.053710938,-0.048828125,62.73462,23.891867,1017.2054,20.684566,1.7344192,0,-0.0032124282,-0.0020275086,19.907816,11.835841,1.3825672,42.24669,2.4562635,1.4293472,11.926187
79.32494,-0.0038850233,60,23.989363,-0.0027900785,98,-0.053710938,-0.048828125,62.73462,23.891867,1017.2054,20.684566,1.7344192,0,-0.0031805143,-0.0020025105,19.907816,11.835841,1.3825672,42.24669,2.4562635,1.4293472,11.926187
79.32494,-0.006457351,60,24.03445,-0.005143784,98,-0.053710938,-0.048828125,62.73462,23.891867,1017.2054,20.684566,1.7344192,0,-0.0031636476,-0.0019918846,19.907816,11.835841,1.3825672,42.24669,2.4562635,1.4293472,11.926187
79.24193,-0.004562862,60,23.94427,-0.0032311007,98,-0.08301544,-0.029312134,62.73462,23.891867,1017.2054,20.684566,1.7344192,0,-0.0031551854,-0.001989113,19.907816,11.835841,1.3825672,42.24669,2.4562635,1.4293472,11.926187
79.24193,-0.00038847327,60,23.94427,0.000689283,98,-0.08301544,-0.029312134,62.73462,23.891867,1017.2054,20.684566,1.7344192,0,-0.0031428293,-0.0019819066,19.907816,11.835841,1.3825672,42.24669,2.4562635,1.4293472,11.926187
79.24193,-0.00030899048,60,24.03445,0.00065146387,98,-0.08301544,-0.029312134,62.73462,23.891867,1017.2054,20.684566,1.7344192,0,-0.0031205402,-0.0019648434,19.907816,11.835841,1.3825672,42.24669,2.4562635,1.4293472,11.926187
79.17113,-0.0037461743,60,23.966816,-0.0026821867,98,-0.07080078,0.012207031,62.73462,23.891867,1017.2054,20.684566,1.7344192,0,-0.0030927702,-0.001943265,19.907816,11.835841,1.3825672,42.24669,2.4562635,1.4293472,11.926187
79.17113,-0.006368123,60,23.966816,-0.005083546,98,-0.07080078,0.012207031,62.73462,23.891867,1017.2054,20.684566,1.7344192,0,-0.0030749247,-0.0019312174,19.907816,11.835841,1.3825672,42.24669,2.4562635,1.4293472,11.926187
79.17113,-0.0045180023,60,23.989363,-0.0032090843,98,-0.07080078,0.012207031,62.73462,23.891867,1017.2054,20.684566,1.7344192,0,-0.0030659528,-0.0019268141,19.907816,11.835841,1.3825672,42.24669,2.4562635,1.4293472,11.926187
79.13695,-0.00033813715,60,23.92172,0.00072386116,98,-0.034179688,0.036621094,62.73462,23.891867,1017.2054,20.684566,1.7344192,0,-0.0030558854,-0.0019198984,19.907816,11.835841,1.3825672,42.24669,2.4562635,1.4293472,11.926187
79.13695,-0.00021129102,60,23.989363,0.0007328689,98,-0.034179688,0.036621094,62.73462,23.891867,1017.2054,20.684566,1.7344192,0,-0.0030363456,-0.0019036174,19.907816,11.835841,1.3825672,42.24669,2.4562635,1.4293472,11.926187
79.13695,-0.003613919,60,24.03445,-0.0025688857,98,-0.034179688,0.036621094,62.73462,23.891867,1017.2054,20.684566,1.7344192,0,-0.0030098946,-0.0018809572,19.907816,11.835841,1.3825672,42.24669,2.4562635,1.4293472,11.926187
79.13695,-0.0062896907,60,23.94427,-0.00502114,98,-0.034179688,0.036621094,62.73462,23.891867,1017.2054,20.684566,1.7344192,0,-0.0029942081,-0.001868476,19.907816,11.835841,1.3825672,42.24669,2.4562635,1.4293472,11.926187
79.1223,-0.004486397,60,23.989363,-0.0031875148,98,-0.0146484375,0.01953125,62.73462,23.891867,1017.2054,20.684566,1.7344192,0,-0.002987887,-0.0018641622,19.907816,11.835841,1.3825672,42.24669,2.4562635,1.4293472,11.926187
79.1223,-0.00030646473,60,23.989363,0.00075249374,98,-0.0146484375,0.01953125,62.73462,23.891867,1017.2054,20.684566,1.7344192,0,-0.0029815526,-0.0018584356,19.907816,11.835841,1.3825672,42.24669,2.4562635,1.4293472,11.926187
79.1223,-0.000116720796,60,23.966816,0.00082493573,98,-0.0146484375,0.01953125,62.73462,23.891867,1017.2054,20.684566,1.7344192,0,-0.0029626384,-0.0018400223,19.907816,11.835841,1.3825672,42.24669,2.4562635,1.4293472,11.926187
79.07103,-0.0034864694,60,24.056995,-0.0024474487,98,-0.05126953,-0.036621094,62.73462,23.891867,1017.2054,20.684566,1.7344192,0,-0.0029371486,-0.0018157348,19.907816,11.835841,1.3825672,42.24669,2.4562635,1.4293472,11.926187
79.07103,-0.0062252283,60,23.966816,-0.0049600974,98,-0.05126953,-0.036621094,62.73462,23.891867,1017.2054,20.684566,1.7344192,0,-0.002924256,-0.0018035263,19.907816,11.835841,1.3825672,42.24669,2.4562635,1.4293472,11.926187
79.07103,-0.004462436,60,23.94427,-0.003161341,98,-0.05126953,-0.036621094,62.73462,23.891867,1017.2054,20.684566,1.7344192,0,-0.002919464,-0.0017982916,19.907816,11.835841,1.3825672,42.24669,2.4562635,1.4293472,11.926187
78.96605,-0.00028080493,60,24.011908,0.000788033,98,-0.10498047,-0.053710938,62.73462,23.891867,1017.2054,20.684566,1.7344192,0,-0.0029143319,-0.0017911837,19.907816,11.835841,1.3825672,42.24669,2.4562635,1.4293472,11.926187
78.96605,-3.321469E-05,60,23.966816,0.0009190142,98,-0.10498047,-0.053710938,62.73462,23.891867,1017.2054,20.684566,1.7344192,0,-0.0028976307,-0.001772368,19.907816,11.835841,1.3825672,42.24669,2.4562635,1.4293472,11.926187
78.96605,-0.003373973,60,23.989363,-0.0023266599,98,-0.10498047,-0.053710938,62.73462,23.891867,1017.2054,20.684566,1.7344192,0,-0.0028751313,-0.0017482102,19.907816,11.835841,1.3825672,42.24669,2.4562635,1.4293472,11.926187
78.96605,-0.0061606765,60,24.03445,-0.004883766,98,-0.10498047,-0.053710938,62.73462,23.891867,1017.2054,20.684566,1.7344192,0,-0.002862221,-0.0017329439,19.907816,11.835841,1.3825672,42.24669,2.4562635,1.4293472,11.926187
78.82445,-0.0044460297,60,23.94427,-0.003127277,98,-0.14160156,-0.036621094,62.73462,23.891867,1017.2054,20.684566,1.7344192,0,-0.0028589398,-0.0017261312,19.907816,11.835841,1.3825672,42.24669,2.4562635,1.4293472,11.926187
78.82445,-0.0002757758,60,23.94427,0.0008151233,98,-0.14160156,-0.036621094,62.73462,23.891867,1017.2054,20.684566,1.7344192,0,-0.002857934,-0.0017207131,19.907816,11.835841,1.3825672,42.24669,2.4562635,1.4293472,11.926187
78.82445,2.2485852E-05,60,24.011908,0.0009965971,98,-0.14160156,-0.036621094,62.73462,23.891867,1017.2054,20.684566,1.7344192,0,-0.002846794,-0.0017051966,19.907816,11.835841,1.3825672,42.24669,2.4562635,1.4293472,11.926187
78.68772,-0.0032873824,60,23.989363,-0.0022159964,98,-0.13672638,0.0048828125,62.73462,23.891867,1017.2054,20.684566,1.7344192,0,-0.0028294758,-0.0016830638,19.907816,11.835841,1.3825672,42.24669,2.4562635,1.4293472,11.926187
78.68772,-0.0061236173,60,23.989363,-0.0048140287,98,-0.13672638,0.0048828125,62.73462,23.891867,1017.2054,20.684566,1.7344192,0,-0.0028220639,-0.0016691163,19.907816,11.835841,1.3825672,42.24669,2.4562635,1.4293472,11.926187
78.68772,-0.004458435,60,23.989363,-0.0031049475,98,-0.13672638,0.0048828125,62.73462,23.891867,1017.2054,20.684566,1.7344192,0,-0.002824545,-0.0016646505,19.907816,11.835841,1.3825672,42.24669,2.4562635,1.4293472,11.926187
78.58762,-0.00027731806,60,23.94427,0.0008411631,98,-0.100097656,0.036636353,62.73462,23.891867,1017.2054,20.684566,1.7344192,0,-0.0028248534,-0.0016594426,19.907816,11.835841,1.3825672,42.24669,2.4562635,1.4293472,11.926187
78.58762,6.875396E-05,60,23.989363,0.0010677204,98,-0.100097656,0.036636353,62.73462,23.891867,1017.2054,20.684566,1.7344192,0,-0.0028155998,-0.0016452179,19.907816,11.835841,1.3825672,42.24669,2.4562635,1.4293472,11.926187
78.58762,-0.0032087266,60,24.03445,-0.0021060035,98,-0.100097656,0.036636353,62.73462,23.891867,1017.2054,20.684566,1.7344192,0,-0.0027998686,-0.0016232192,19.907816,11.835841,1.3825672,42.24669,2.4562635,1.4293472,11.926187
78.58762,-0.0061006397,60,23.966816,-0.0047501028,98,-0.100097656,0.036636353,62.73462,23.891867,1017.2054,20.684566,1.7344192,0,-0.0027952732,-0.001610434,19.907816,11.835841,1.3825672,42.24669,2.4562635,1.4293472,11.926187
78.52415,-0.0044863075,60,23.966816,-0.0030929446,98,-0.06347656,0.036621094,62.73462,23.891867,1017.2054,20.684566,1.7344192,0,-0.0028008476,-0.0016080335,19.907816,11.835841,1.3825672,42.24669,2.4562635,1.4293472,11.926187
78.52415,-0.00030648708,60,23.966816,0.0008502379,98,-0.06347656,0.036621094,62.73462,23.891867,1017.2054,20.684566,1.7344192,0,-0.0028066814,-0.0016062185,19.907816,11.835841,1.3825672,42.24669,2.4562635,1.4293472,11.926187
78.52415,0.0001065284,60,23.94427,0.0011428893,98,-0.06347656,0.036621094,62.73462,23.891867,1017.2054,20.684566,1.7344192,0,-0.0027991266,-0.0015911848,19.907816,11.835841,1.3825672,42.24669,2.4562635,1.4293472,11.926187
78.487526,-0.0031399503,60,24.03445,-0.0020011514,98,-0.036621094,0.026855469,62.73462,23.891867,1017.2054,20.684566,1.7344192,0,-0.0027853714,-0.0015702144,19.907816,11.835841,1.3825672,42.24669,2.4562635,1.4293472,11.926187
78.487526,-0.006081708,60,23.989363,-0.0046933517,98,-0.036621094,0.026855469,62.73462,23.891867,1017.2054,20.684566,1.7344192,0,-0.0027815849,-0.0015588641,19.907816,11.835841,1.3825672,42.24669,2.4562635,1.4293472,11.926187
78.487526,-0.0044983774,60,23.94427,-0.0030656978,98,-0.036621094,0.026855469,62.73462,23.891867,1017.2054,20.684566,1.7344192,0,-0.0027839988,-0.0015534147,19.907816,11.835841,1.3825672,42.24669,2.4562635,1.4293472,11.926187
78.48264,-0.0003155172,60,24.011908,0.00088175386,98,-0.0048828125,0.03173828,62.73462,23.891867,1017.2054,20.684566,1.7344192,0,-0.002785805,-0.0015471115,19.907816,11.835841,1.3825672,42.24669,2.4562635,1.4293472,11.926187
78.48264,0.00015047193,60,23.966816,0.0012246966,98,-0.0048828125,0.03173828,62.73462,23.891867,1017.2054,20.684566,1.7344192,0,-0.0027770163,-0.0015307501,19.907816,11.835841,1.3825672,42.24669,2.4562635,1.4293472,11.926187
78.48264,-0.0030663684,60,23.989363,-0.0018936843,98,-0.0048828125,0.03173828,62.73462,23.891867,1017.2054,20.684566,1.7344192,0,-0.0027622997,-0.0015092567,19.907816,11.835841,1.3825672,42.24669,2.4562635,1.4293472,11.926187
78.48264,-0.0060513765,60,24.03445,-0.004628733,98,-0.0048828125,0.03173828,62.73462,23.891867,1017.2054,20.684566,1.7344192,0,-0.0027562336,-0.0014963329,19.907816,11.835841,1.3825672,42.24669,2.4562635,1.4293472,11.926187
78.49485,-0.0045102686,60,23.94427,-0.0030424073,98,0.012207031,0.017089844,62.73462,23.891867,1017.2054,20.684566,1.7344192,0,-0.0027586117,-0.0014916748,19.907816,11.835841,1.3825672,42.24669,2.4562635,1.4293472,11.926187
78.49485,-0.0003271401,60,23.94427,0.000907816,98,0.012207031,0.017089844,62.73462,23.891867,1017.2054,20.684566,1.7344192,0,-0.0027609363,-0.0014864624,19.907816,11.835841,1.3825672,42.24669,2.4562635,1.4293472,11.926187
78.49485,0.00018963218,60,24.056995,0.001299262,98,0.012207031,0.017089844,62.73462,23.891867,1017.2054,20.684566,1.7344192,0,-0.0027531043,-0.0014715493,19.907816,11.835841,1.3825672,42.24669,2.4562635,1.4293472,11.926187
78.487526,-0.0029809847,60,23.989363,-0.0017774776,98,-0.0073242188,-0.01953125,62.73462,23.891867,1017.2054,20.684566,1.7344192,0,-0.0027360276,-0.001448308,19.907816,11.835841,1.3825672,42.24669,2.4562635,1.4293472,11.926187
78.487526,-0.0060171112,60,23.989363,-0.004563667,98,-0.0073242188,-0.01953125,62.73462,23.891867,1017.2054,20.684566,1.7344192,0,-0.0027291744,-0.0014352947,19.907816,11.835841,1.3825672,42.24669,2.4562635,1.4293472,11.926187
78.487526,-0.0045281053,60,24.03445,-0.003028527,98,-0.0073242188,-0.01953125,62.73462,23.891867,1017.2054,20.684566,1.7344192,0,-0.0027327419,-0.0014325187,19.907816,11.835841,1.3825672,42.24669,2.4562635,1.4293472,11.926187
78.46067,-0.00034786016,60,23.94427,0.00092084706,98,-0.026855469,-0.01953125,62.73462,23.891867,1017.2054,20.684566,1.7344192,0,-0.0027368858,-0.0014299125,19.907816,11.835841,1.3825672,42.24669,2.4562635,1.4293472,11.926187
78.46067,0.0002296418,60,23.989363,0.0013710782,98,-0.026855469,-0.01953125,62.73462,23.891867,1017.2054,20.684566,1.7344192,0,-0.0027288839,-0.0014155492,19.907816,11.835841,1.3825672,42.24669,2.4562635,1.4293472,11.926187
78.46067,-0.0029079616,60,24.03445,-0.0016778558,98,-0.026855469,-0.01953125,62.73462,23.891867,1017.2054,20.684566,1.7344192,0,-0.0027142793,-0.001395625,19.907816,11.835841,1.3825672,42.24669,2.4562635,1.4293472,11.926187
78.46067,-0.0059936643,60,23.94427,-0.004513912,98,-0.026855469,-0.01953125,62.73462,23.891867,1017.2054,20.684566,1.7344192,0,-0.00270959,-0.0013856739,19.907816,11.835841,1.3825672,42.24669,2.4562635,1.4293472,11.926187
78.40208,-0.0045399964,60,23.989363,-0.0030129924,98,-0.05859375,-0.03173828,62.73462,23.891867,1017.2054,20.684566,1.7344192,0,-0.0027119683,-0.001382567,19.907816,11.835841,1.3825672,42.24669,2.4562635,1.4293472,11.926187
78.40208,-0.00036656857,60,23.989363,0.0009306818,98,-0.05859375,-0.03173828,62.73462,23.891867,1017.2054,20.684566,1.7344192,0,-0.0027157099,-0.0013806,19.907816,11.835841,1.3825672,42.24669,2.4562635,1.4293472,11.926187
78.40208,0.00027503818,60,23.94427,0.001439631,98,-0.05859375,-0.03173828,62.73462,23.891867,1017.2054,20.684566,1.7344192,0,-0.0027066306,-0.0013668895,19.907816,11.835841,1.3825672,42.24669,2.4562635,1.4293472,11.926187
78.311745,-0.0028369278,60,24.056995,-0.001588583,98,-0.09033203,-0.03173828,62.73462,23.891867,1017.2054,20.684566,1.7344192,0,-0.0026924238,-0.001349035,19.907816,11.835841,1.3825672,42.24669,2.4562635,1.4293472,11.926187
78.311745,-0.00596264,60,24.011908,-0.0044662356,98,-0.09033203,-0.03173828,62.73462,23.891867,1017.2054,20.684566,1.7344192,0,-0.002686219,-0.0013394997,19.907816,11.835841,1.3825672,42.24669,2.4562635,1.4293472,11.926187
78.311745,-0.0045431927,60,23.94427,-0.0030009001,98,-0.09033203,-0.03173828,62.73462,23.891867,1017.2054,20.684566,1.7344192,0,-0.0026868582,-0.0013370812,19.907816,11.835841,1.3825672,42.24669,2.4562635,1.4293472,11.926187
78.311745,-0.00037736446,60,24.011908,0.00093492866,98,-0.09033203,-0.03173828,62.73462,23.891867,1017.2054,20.684566,1.7344192,0,-0.0026890174,-0.0013362318,19.907816,11.835841,1.3825672,42.24669,2.4562635,1.4293472,11.926187
78.2092,0.00032405555,60,23.989363,0.0014969409,98,-0.10254669,-0.01222229,62.73462,23.891867,1017.2054,20.684566,1.7344192,0,-0.0026792139,-0.0013247699,19.907816,11.835841,1.3825672,42.24669,2.4562635,1.4293472,11.926187
78.2092,-0.002736479,60,23.989363,-0.0014875978,98,-0.10254669,-0.01222229,62.73462,23.891867,1017.2054,20.684566,1.7344192,0,-0.002659124,-0.0013045728,19.907816,11.835841,1.3825672,42.24669,2.4562635,1.4293472,11.926187
78.2092,-0.0059088394,60,24.056995,-0.0044144914,98,-0.10254669,-0.01222229,62.73462,23.891867,1017.2054,20.684566,1.7344192,0,-0.002648364,-0.0012942239,19.907816,11.835841,1.3825672,42.24669,2.4562635,1.4293472,11.926187
78.135956,-0.0045403987,60,23.94427,-0.0030035377,98,-0.07324219,0.029296875,62.73462,23.891867,1017.2054,20.684566,1.7344192,0,-0.0026478053,-0.0012947515,19.907816,11.835841,1.3825672,42.24669,2.4562635,1.4293472,11.926187
78.135956,-0.0003747046,60,23.94427,0.000928469,98,-0.07324219,0.029296875,62.73462,23.891867,1017.2054,20.684566,1.7344192,0,-0.0026472732,-0.0012960434,19.907816,11.835841,1.3825672,42.24669,2.4562635,1.4293472,11.926187
78.135956,0.00040530413,60,24.011908,0.0015608892,98,-0.07324219,0.029296875,62.73462,23.891867,1017.2054,20.684566,1.7344192,0,-0.0026310235,-0.0012832538,19.907816,11.835841,1.3825672,42.24669,2.4562635,1.4293472,11.926187
78.12131,-0.0026265308,60,23.966816,-0.0014018342,98,-0.0146484375,0.05859375,62.73462,23.891867,1017.2054,20.684566,1.7344192,0,-0.0026090338,-0.001266101,19.907816,11.835841,1.3825672,42.24669,2.4562635,1.4293472,11.926187
78.12131,-0.0058501437,60,23.989363,-0.0043830425,98,-0.0146484375,0.05859375,62.73462,23.891867,1017.2054,20.684566,1.7344192,0,-0.0025972947,-0.0012598112,19.907816,11.835841,1.3825672,42.24669,2.4562635,1.4293472,11.926187
78.12131,-0.0045066476,60,23.966816,-0.0030017048,98,-0.0146484375,0.05859375,62.73462,23.891867,1017.2054,20.684566,1.7344192,0,-0.0025905445,-0.0012594446,19.907816,11.835841,1.3825672,42.24669,2.4562635,1.4293472,11.926187
78.12131,-0.0003433451,60,23.92172,0.0009247139,98,-0.0146484375,0.05859375,62.73462,23.891867,1017.2054,20.684566,1.7344192,0,-0.0025842728,-0.0012601957,19.907816,11.835841,1.3825672,42.24669,2.4562635,1.4293472,11.926187
78.187225,0.0004902184,60,24.011908,0.0016029328,98,0.06591797,0.080566406,62.73462,23.891867,1017.2054,20.684566,1.7344192,0,-0.0025672899,-0.001251787,19.907816,11.835841,1.3825672,42.24669,2.4562635,1.4293472,11.926187
78.187225,-0.0025041997,60,24.03445,-0.0013323203,98,0.06591797,0.080566406,62.73462,23.891867,1017.2054,20.684566,1.7344192,0,-0.0025428236,-0.0012378842,19.907816,11.835841,1.3825672,42.24669,2.4562635,1.4293472,11.926187
78.187225,-0.005755551,60,23.94427,-0.0043472797,98,0.06591797,0.080566406,62.73462,23.891867,1017.2054,20.684566,1.7344192,0,-0.0025239051,-0.0012307316,19.907816,11.835841,1.3825672,42.24669,2.4562635,1.4293472,11.926187
78.2971,-0.0044524446,60,24.011908,-0.0030102655,98,0.10987091,0.043945313,62.73462,23.891867,1017.2054,20.684566,1.7344192,0,-0.0025130645,-0.0012324437,19.907816,11.835841,1.3825672,42.24669,2.4562635,1.4293472,11.926187
78.2971,-0.00029405951,60,23.94427,0.0009069443,98,0.10987091,0.043945313,62.73462,23.891867,1017.2054,20.684566,1.7344192,0,-0.0025032074,-0.0012359977,19.907816,11.835841,1.3825672,42.24669,2.4562635,1.4293472,11.926187
78.2971,0.0006073639,60,23.966816,0.0016431883,98,0.10987091,0.043945313,62.73462,23.891867,1017.2054,20.684566,1.7344192,0,-0.0024797784,-0.0012279466,19.907816,11.835841,1.3825672,42.24669,2.4562635,1.4293472,11.926187
78.487526,-0.0023383945,60,24.079538,-0.0012518317,98,0.19042969,0.08055115,62.73462,23.891867,1017.2054,20.684566,1.7344192,0,-0.0024466172,-0.0012118489,19.907816,11.835841,1.3825672,42.24669,2.4562635,1.4293472,11.926187
78.487526,-0.0056369975,60,23.966816,-0.0043165907,98,0.19042969,0.08055115,62.73462,23.891867,1017.2054,20.684566,1.7344192,0,-0.0024229065,-0.001205711,19.907816,11.835841,1.3825672,42.24669,2.4562635,1.4293472,11.926187
78.487526,-0.0043846965,60,23.966816,-0.0030350536,98,0.19042969,0.08055115,62.73462,23.891867,1017.2054,20.684566,1.7344192,0,-0.0024093569,-0.0012106687,19.907816,11.835841,1.3825672,42.24669,2.4562635,1.4293472,11.926187
78.487526,-0.00023473799,60,24.03445,0.0008714497,98,0.19042969,0.08055115,62.73462,23.891867,1017.2054,20.684566,1.7344192,0,-0.0023974925,-0.0012177676,19.907816,11.835841,1.3825672,42.24669,2.4562635,1.4293472,11.926187
78.84398,0.0007285774,60,23.94427,0.0016633719,98,0.35645294,0.16603088,62.73462,23.891867,1017.2054,20.684566,1.7344192,0,-0.00237325,-0.0012137309,19.907816,11.835841,1.3825672,42.24669,2.4562635,1.4293472,11.926187
78.84398,-0.002178982,60,23.989363,-0.001202032,98,0.35645294,0.16603088,62.73462,23.891867,1017.2054,20.684566,1.7344192,0,-0.0023413673,-0.001203771,19.907816,11.835841,1.3825672,42.24669,2.4562635,1.4293472,11.926187
78.84398,-0.005522825,60,24.03445,-0.004316278,98,0.35645294,0.16603088,62.73462,23.891867,1017.2054,20.684566,1.7344192,0,-0.002318533,-0.0012037084,19.907816,11.835841,1.3825672,42.24669,2.4562635,1.4293472,11.926187
79.42748,-0.0043067783,60,23.94427,-0.0030707046,98,0.5835037,0.22705078,62.73462,23.891867,1017.2054,20.684566,1.7344192,0,-0.002302949,-0.0012108386,19.907816,11.835841,1.3825672,42.24669,2.4562635,1.4293472,11.926187
79.42748,-0.00017496943,60,23.94427,0.0008209795,98,0.5835037,0.22705078,62.73462,23.891867,1017.2054,20.684566,1.7344192,0,-0.0022909956,-0.0012209326,19.907816,11.835841,1.3825672,42.24669,2.4562635,1.4293472,11.926187
79.42748,0.00084827095,60,24.011908,0.0016680658,98,0.5835037,0.22705078,62.73462,23.891867,1017.2054,20.684566,1.7344192,0,-0.0022670568,-0.0012199938,19.907816,11.835841,1.3825672,42.24669,2.4562635,1.4293472,11.926187
80.22095,-0.0020258278,60,23.989363,-0.0011707842,98,0.79346466,0.20996094,62.73462,23.891867,1017.2054,20.684566,1.7344192,0,-0.0022364259,-0.0012137443,19.907816,11.835841,1.3825672,42.24669,2.4562635,1.4293472,11.926187
80.22095,-0.005401209,60,24.011908,-0.004319228,98,0.79346466,0.20996094,62.73462,23.891867,1017.2054,20.684566,1.7344192,0,-0.0022121028,-0.0012143344,19.907816,11.835841,1.3825672,42.24669,2.4562635,1.4293472,11.926187
80.22095,-0.004229754,60,23.989363,-0.0031178668,98,0.79346466,0.20996094,62.73462,23.891867,1017.2054,20.684566,1.7344192,0,-0.002196698,-0.0012237668,19.907816,11.835841,1.3825672,42.24669,2.4562635,1.4293472,11.926187
81.146255,-0.00011587143,60,23.92172,0.0007571876,98,0.9253082,0.13183594,62.73462,23.891867,1017.2054,20.684566,1.7344192,0,-0.0021848783,-0.0012365252,19.907816,11.835841,1.3825672,42.24669,2.4562635,1.4293472,11.926187
81.146255,0.0009787604,60,24.03445,0.0016698539,98,0.9253082,0.13183594,62.73462,23.891867,1017.2054,20.684566,1.7344192,0,-0.0021587803,-0.0012361676,19.907816,11.835841,1.3825672,42.24669,2.4562635,1.4293472,11.926187
