"Elapsed.Time","Heart.Rate.PulseOx1","PPG.PulseOx1","SpO2.PulseOx1","BioRadio.Event","X","ID","undetrended"
"00:00:00",511,76.7321243286133,127,0,NA,1,76.7321243286133
"00:00:00.012",511,76.7028274536133,127,0,NA,2,76.6007063388825
"00:00:00.024",511,76.6881790161133,127,0,NA,3,76.4830212593079
"00:00:00.036",511,76.6832962036133,127,0,NA,4,76.3746440410614
"00:00:00.052",511,76.6881790161133,127,0,NA,5,76.2758798599243
"00:00:00.064",511,76.7028274536133,127,0,NA,6,76.1870338916779
"00:00:00.076",511,76.7248001098633,127,0,NA,7,76.1059699058533
"00:00:00.092",511,76.7541046142578,127,0,NA,8,76.032924413681
"00:00:00.104",511,76.7858428955078,127,0,NA,9,75.9632284641266
"00:00:00.116",511,76.8102569580078,127,0,NA,10,75.8872001171112
"00:00:00.132",511,76.8175811767578,127,0,NA,11,75.7948448657989
"00:00:00.144",511,76.8102569580078,127,0,NA,12,75.6880700588226
"00:00:00.156",511,76.7956085205078,127,0,NA,13,75.5737421512604
"00:00:00.172",511,76.8126983642578,127,0,NA,14,75.4906947612762
"00:00:00.184",511,76.9347686767578,127,0,NA,15,75.5131618976593
"00:00:00.196",67,77.2765731811523,96,0,NA,16,75.7591779232025
"00:00:00.212",67,77.9650573730469,96,0,NA,17,76.3625550270081
"00:00:00.224",67,79.0759124755859,96,0,NA,18,77.4098181724548
"00:00:00.236",67,80.6091384887695,96,0,NA,19,78.9141664505005
"00:00:00.252",67,82.4524307250977,96,0,NA,20,80.7764942646027
"00:00:00.264",67,84.4202346801758,96,0,NA,21,82.8209366798401
"00:00:00.276",67,86.2879409790039,96,0,NA,22,84.8267753124237
"00:00:00.292",67,87.8626708984375,96,0,NA,23,86.5980033874512
"00:00:00.304",67,89.0125885009766,96,0,NA,24,87.9936294555664
"00:00:00.316",67,89.6864242553711,96,0,NA,25,88.9491086006165
"00:00:00.332",67,89.8939514160156,96,0,NA,26,89.4593365192413
"00:00:00.344",67,89.6888656616211,96,0,NA,27,89.5634367465973
"00:00:00.356",67,89.1541900634766,96,0,NA,28,89.3315382003785
"00:00:00.372",67,88.380256652832,96,0,NA,29,88.8436732292175
"00:00:00.384",67,87.459831237793,96,0,NA,30,88.1851308345795
"00:00:00.396",67,86.4563980102539,96,0,NA,31,87.4148173332214
"00:00:00.412",67,85.4236679077148,96,0,NA,32,86.5838496685028
"00:00:00.424",67,84.3982620239258,96,0,NA,33,85.7279334068298
"00:00:00.436",67,83.4216842651367,96,0,NA,34,84.8888013362884
"00:00:00.452",67,82.5281143188477,96,0,NA,35,84.102159023285
"00:00:00.464",67,81.7639465332031,96,0,NA,36,83.4169948101043
"00:00:00.476",67,81.1633453369141,96,0,NA,37,82.8715169429779
"00:00:00.492",67,80.7605133056641,96,0,NA,38,82.5050394535065
"00:00:00.504",67,80.5603103637695,96,0,NA,39,82.3286025524139
"00:00:00.516",67,80.5383377075195,96,0,NA,40,82.3241395950317
"00:00:00.532",67,80.6579666137695,96,0,NA,41,82.4605915546417
"00:00:00.544",67,80.8703765869141,96,0,NA,42,82.6935629844666
"00:00:00.556",67,81.1096343994141,96,0,NA,43,82.9600200653077
"00:00:00.572",67,81.3220443725586,96,0,NA,44,83.2071061134338
"00:00:00.584",67,81.4636459350586,96,0,NA,45,83.3900215625763
"00:00:00.596",67,81.5075912475586,96,0,NA,46,83.4797058105469
"00:00:00.612",67,81.4392318725586,96,0,NA,47,83.4584586620331
"00:00:00.624",67,81.2610092163086,96,0,NA,48,83.3252120018005
"00:00:00.636",67,80.9948883056641,96,0,NA,49,83.0984976291657
"00:00:00.652",67,80.6604080200195,96,0,NA,50,82.7951076030731
"00:00:00.664",67,80.2819900512695,96,0,NA,51,82.4373273849487
"00:00:00.676",67,79.884033203125,96,0,NA,52,82.0481827259064
"00:00:00.692",67,79.4909591674805,96,0,NA,53,81.6514847278595
"00:00:00.704",67,79.1100921630859,96,0,NA,54,81.2547101974487
"00:00:00.716",67,78.7560882568359,96,0,NA,55,80.8728966712951
"00:00:00.732",67,78.4313735961914,96,0,NA,56,80.5093097686768
"00:00:00.744",67,78.1335144042969,96,0,NA,57,80.1624310016632
"00:00:00.756",67,77.8625183105469,96,0,NA,58,79.8331072330475
"00:00:00.772",67,77.6159286499023,96,0,NA,59,79.5197212696075
"00:00:00.784",67,77.3962020874023,96,0,NA,60,79.2254924774169
"00:00:00.796",67,77.1984405517578,96,0,NA,61,78.9463622570038
"00:00:00.812",67,77.0299835205078,96,0,NA,62,78.6903564929962
"00:00:00.824",67,76.8908233642578,96,0,NA,63,78.4583833217621
"00:00:00.836",67,76.7809600830078,96,0,NA,64,78.2513582706451
"00:00:00.852",67,76.6906204223633,96,0,NA,65,78.0604236125946
"00:00:00.864",67,76.6173782348633,96,0,NA,66,77.8837633132935
"00:00:00.876",67,76.5539016723633,96,0,NA,67,77.7145798206329
"00:00:00.892",67,76.5001907348633,96,0,NA,68,77.5531783103943
"00:00:00.904",67,76.4489212036133,96,0,NA,69,77.3925397396088
"00:00:00.916",67,76.4147415161133,96,0,NA,70,77.2473888397217
"00:00:00.932",67,76.3976516723633,96,0,NA,71,77.1182596683502
"00:00:00.948",67,76.3976516723633,96,0,NA,71,77.0056862831116
"00:00:00.956",67,76.4098587036133,96,0,NA,72,76.9053199291229
"00:00:00.972",67,76.4293899536133,96,0,NA,73,76.8126592636109
"00:00:00.984",67,76.4440383911133,96,0,NA,74,76.7157261371613
"00:00:00.996",67,76.4464797973633,96,0,NA,75,76.6070437431336
"00:00:01.012",67,76.4586868286133,96,0,NA,76,76.5082032680512
"00:00:01.024",67,76.5441360473633,96,0,NA,77,76.4829864501953
"00:00:01.036",67,76.8224639892578,96,0,NA,78,76.6533186435699
"00:00:01.052",67,77.4303817749023,96,0,NA,79,77.1619384288787
"00:00:01.064",67,78.4679946899414,96,0,NA,80,78.1192507743835
"00:00:01.076",67,79.964599609375,96,0,NA,81,79.5679805278778
"00:00:01.092",67,81.8371887207031,96,0,NA,82,81.4394633769989
"00:00:01.104",67,83.8977661132813,96,0,NA,83,83.5574529170991
"00:00:01.116",67,85.9217224121094,96,0,NA,84,85.7032144069672
"00:00:01.132",67,87.696647644043,96,0,NA,85,87.6631934642792
"00:00:01.144",67,89.0589752197266,96,0,NA,86,89.2660412788392
"00:00:01.156",67,89.9354553222656,96,0,NA,87,90.4256143569946
"00:00:01.172",67,90.3187637329102,96,0,NA,88,91.11940574646
"00:00:01.184",67,90.2577285766602,96,0,NA,89,91.3808319568634
"00:00:01.196",67,89.8377990722656,96,0,NA,90,91.2814564704895
"00:00:01.212",67,89.1541900634766,96,0,NA,91,90.9052786827088
"00:00:01.224",67,88.299690246582,96,0,NA,92,90.3368473052978
"00:00:01.236",67,87.354850769043,96,0,NA,93,89.6513731479645
"00:00:01.252",67,86.3733901977539,96,0,NA,94,88.899751663208
"00:00:01.264",67,85.3846054077148,96,0,NA,95,88.1101353168487
"00:00:01.276",67,84.4202346801758,96,0,NA,96,87.3140335083008
"00:00:01.292",67,83.4998092651367,96,0,NA,97,86.5317404270172
"00:00:01.304",67,82.6648330688477,96,0,NA,98,85.8061332702637
"00:00:01.316",67,81.9543762207031,96,0,NA,99,85.1789524555206
"00:00:01.332",67,81.4074935913086,96,0,NA,100,84.6931440830231
"00:00:01.344",67,81.0461578369141,96,0,NA,101,84.375792503357
"00:00:01.356",67,80.8728179931641,96,0,NA,102,84.2351450920105
"00:00:01.372",67,80.8557281494141,96,0,NA,103,84.2453308105469
"00:00:01.384",67,80.9558258056641,96,0,NA,104,84.3721699714661
"00:00:01.396",67,81.1169586181641,96,0,NA,105,84.5631723403931
"00:00:01.412",67,81.2854232788086,96,0,NA,106,84.7665419578552
"00:00:01.424",67,81.4099349975586,96,0,NA,107,84.931223154068
"00:00:01.436",67,81.4563217163086,96,0,NA,108,85.0216703414917
"00:00:01.452",67,81.4026107788086,96,0,NA,109,85.0134694576263
"00:00:01.464",67,81.2487945556641,96,0,NA,110,84.9034848213196
"00:00:01.476",67,81.0022125244141,96,0,NA,111,84.6959276199341
"00:00:01.492",67,80.6799392700195,96,0,NA,112,84.4049735069275
"00:00:01.504",67,80.3064041137695,96,0,NA,113,84.0526864528656
"00:00:01.516",67,79.906005859375,96,0,NA,114,83.6618633270264
"00:00:01.532",66,79.4934005737305,96,0,NA,115,83.2463207244873
"00:00:01.544",66,79.0832366943359,96,0,NA,116,82.8203256130218
"00:00:01.556",66,78.6950454711914,96,0,NA,117,82.4034855365753
"00:00:01.572",66,78.3288345336914,96,0,NA,118,81.99649477005
"00:00:01.584",66,77.9967956542969,96,0,NA,119,81.6122319698334
"00:00:01.596",66,77.7013778686523,96,0,NA,120,81.2542140483856
"00:00:01.612",66,77.4425888061523,96,0,NA,121,80.923593044281
"00:00:01.624",66,77.2228546142578,96,0,NA,122,80.6239397525787
"00:00:01.636",66,77.0397491455078,96,0,NA,123,80.3540484905243
"00:00:01.652",66,76.8908233642578,96,0,NA,124,80.1126148700714
"00:00:01.664",66,76.7663116455078,96,0,NA,125,79.8909413814545
"00:00:01.676",66,76.6564407348633,96,0,NA,126,79.6800177097321
"00:00:01.692",66,76.5612258911133,96,0,NA,127,79.4803166389465
"00:00:01.704",66,76.4806594848633,96,0,NA,128,79.2922885417938
"00:00:01.716",66,76.4147415161133,96,0,NA,129,79.1163911819458
"00:00:01.732",66,76.3610305786133,96,0,NA,130,78.9506409168244
"00:00:01.744",66,76.3244094848633,96,0,NA,131,78.800302028656
"00:00:01.756",66,76.3024368286133,96,0,NA,132,78.663467168808
"00:00:01.772",66,76.2853469848633,96,0,NA,133,78.5308284759522
"00:00:01.784",66,76.2706985473633,96,0,NA,134,78.4000971317291
"00:00:01.796",66,76.2462768554688,96,0,NA,135,78.2591347694398
"00:00:01.812",66,76.2096557617188,96,0,NA,136,78.1052098274232
"00:00:01.824",66,76.1657104492188,96,0,NA,137,77.9428162574769
"00:00:01.836",66,76.1412963867188,96,0,NA,138,77.7985806465149
"00:00:01.852",66,76.2023315429688,96,0,NA,139,77.7390313148499
"00:00:01.864",66,76.4635696411133,96,0,NA,140,77.8815922737122
"00:00:01.876",66,77.0470733642578,96,0,NA,141,78.3545825481415
"00:00:01.892",66,78.0505065917969,96,0,NA,142,79.2657368183136
"00:00:01.904",66,79.4909591674805,96,0,NA,143,80.6452677249909
"00:00:01.916",66,81.2878646850586,96,0,NA,144,82.4262657165527
"00:00:01.932",66,83.2776412963867,96,0,NA,145,84.4562880992889
"00:00:01.944",66,85.2356719970703,96,0,NA,146,86.5167450904846
"00:00:01.956",66,86.9495697021484,96,0,NA,147,88.3942575454711
"00:00:01.972",66,88.263069152832,96,0,NA,148,89.9249310493469
"00:00:01.984",66,89.0931549072266,96,0,NA,149,91.0132377147675
"00:00:01.996",66,89.4349594116211,96,0,NA,150,91.6392033100128
"00:00:02.012",66,89.3348617553711,96,0,NA,151,91.833948135376
"00:00:02.024",66,88.8783111572266,96,0,NA,152,91.6691119670868
"00:00:02.036",66,88.1605224609375,96,0,NA,153,91.2287704944611
"00:00:02.052",66,87.284049987793,96,0,NA,154,90.6073143482209
"00:00:02.064",66,86.3147964477539,96,0,NA,155,89.8656873703003
"00:00:02.076",66,85.3113632202148,96,0,NA,156,89.0595915317535
"00:00:02.092",66,84.3103713989258,96,0,NA,157,88.2245798110962
"00:00:02.104",66,83.3435592651367,96,0,NA,158,87.3924667835235
"00:00:02.116",66,82.4426651000977,96,0,NA,159,86.5960588455201
"00:00:02.132",66,81.6516342163086,96,0,NA,160,85.881361246109
"00:00:02.144",66,81.0070953369141,96,0,NA,161,85.2884359359742
"00:00:02.156",66,80.5407791137695,96,0,NA,162,84.8535914421081
"00:00:02.172",66,80.2697830200195,96,0,NA,163,84.5994946956634
"00:00:02.184",66,80.181884765625,96,0,NA,164,84.5200271606445
"00:00:02.196",67,80.235595703125,96,0,NA,165,84.5794219970703
"00:00:02.212",67,80.3845291137695,96,0,NA,166,84.7357177734375
"00:00:02.224",67,80.5749588012695,96,0,NA,167,84.9381639957428
"00:00:02.236",67,80.7482986450195,96,0,NA,168,85.1294713020324
"00:00:02.252",67,80.8606109619141,96,0,NA,169,85.2651679515839
"00:00:02.264",67,80.8850250244141,96,0,NA,170,85.3164761066437
"00:00:02.276",67,80.8093414306641,96,0,NA,171,85.2684495449067
"00:00:02.292",67,80.6286697387695,96,0,NA,172,85.1130697727203
"00:00:02.304",67,80.3601150512695,96,0,NA,173,84.8641610145569
"00:00:02.316",67,80.025634765625,96,0,NA,174,84.5409343242645
"00:00:02.332",67,79.6496505737305,96,0,NA,175,84.1657512187958
"00:00:02.344",67,79.2492523193359,96,0,NA,176,83.7544045448303
"00:00:02.356",67,78.8513031005859,96,0,NA,177,83.3329944610595
"00:00:02.372",67,78.4655532836914,96,0,NA,178,82.9113478660583
"00:00:02.384",67,78.0993347167969,96,0,NA,179,82.4971778392792
"00:00:02.396",67,77.7648620605469,96,0,NA,180,82.1033093929291
"00:00:02.412",67,77.4621200561523,96,0,NA,181,81.7307193279266
"00:00:02.424",67,77.1959991455078,96,0,NA,182,81.3852896690369
"00:00:02.436",67,76.9616241455078,96,0,NA,183,81.063289642334
"00:00:02.452",67,76.7541046142578,96,0,NA,184,80.7608208656311
"00:00:02.464",67,76.5783157348633,96,0,NA,185,80.4835977554321
"00:00:02.476",67,76.4293899536133,96,0,NA,186,80.2277443408966
"00:00:02.492",67,76.2999954223633,96,0,NA,187,79.986768245697
"00:00:02.504",67,76.1901245117188,96,0,NA,188,79.7612721920014
"00:00:02.516",67,76.0949096679688,96,0,NA,189,79.5469987392426
"00:00:02.532",67,76.0094604492188,96,0,NA,190,79.3395154476166
"00:00:02.544",67,75.9264526367188,96,0,NA,191,79.1318032741547
"00:00:02.556",67,75.8458862304688,96,0,NA,192,78.9239385128022
"00:00:02.572",67,75.7750854492188,96,0,NA,193,78.7233216762543
"00:00:02.584",67,75.7091598510742,96,0,NA,194,78.5253674983978
"00:00:02.596",67,75.6456832885742,96,0,NA,195,78.3278021812439
"00:00:02.612",67,75.5846481323242,96,0,NA,196,78.1306946277618
"00:00:02.624",67,75.5260543823242,96,0,NA,197,77.934121131897
"00:00:02.636",67,75.4991989135742,96,0,NA,198,77.7674548625946
"00:00:02.652",67,75.5626754760742,96,0,NA,199,77.6902813911438
"00:00:02.664",67,75.8312377929688,96,0,NA,200,77.8201773166657
"00:00:02.676",67,76.4123001098633,96,0,NA,201,78.2709658145905
"00:00:02.692",67,77.3962020874023,96,0,NA,202,79.1427521705627
"00:00:02.704",67,78.7829437255859,96,0,NA,203,80.4481251239776
"00:00:02.716",67,80.4821853637695,96,0,NA,204,82.1093337535858
"00:00:02.732",67,82.3303604125977,96,0,NA,205,83.9725770950318
"00:00:02.744",67,84.1150512695313,96,0,NA,206,85.8300917148591
"00:00:02.756",67,85.6409530639648,96,0,NA,207,87.4845888614654
"00:00:02.772",67,86.7762298583984,96,0,NA,208,88.7961454391479
"00:00:02.784",67,87.450065612793,96,0,NA,209,89.6817383766175
"00:00:02.796",67,87.667350769043,96,0,NA,210,90.1318380832672
"00:00:02.812",67,87.484245300293,96,0,NA,211,90.1883373260498
"00:00:02.824",67,86.9788665771484,96,0,NA,212,89.9168412685394
"00:00:02.836",67,86.2439880371094,96,0,NA,213,89.4000523090363
"00:00:02.852",67,85.3650741577148,96,0,NA,214,88.7162630558013
"00:00:02.864",68,84.4080276489258,97,0,NA,215,87.9268751144409
"00:00:02.876",68,83.4241256713867,97,0,NA,216,87.0807240009308
"00:00:02.892",68,82.4475479125977,97,0,NA,217,86.2111501693726
"00:00:02.904",68,81.5246810913086,97,0,NA,218,85.3647692203522
"00:00:02.916",68,80.6921463012695,97,0,NA,219,84.5798807144165
"00:00:02.932",68,79.998779296875,97,0,NA,220,83.9081432819366
"00:00:02.944",68,79.4836349487305,97,0,NA,221,83.3929607868195
"00:00:02.956",68,79.1735687255859,97,0,NA,222,83.0667581558227
"00:00:02.972",68,79.0563812255859,97,0,NA,223,82.9237446784973
"00:00:02.984",68,79.1149749755859,97,0,NA,224,82.9528503417968
"00:00:02.996",68,79.2932052612305,97,0,NA,225,83.1034235954285
"00:00:03.012",68,79.5349044799805,97,0,NA,226,83.3230354785919
"00:00:03.024",68,79.781494140625,97,0,NA,227,83.5550909042358
"00:00:03.036",68,79.984130859375,97,0,NA,228,83.7508993148804
"00:00:03.052",68,80.098876953125,97,0,NA,229,83.8651494979858
"00:00:03.064",68,80.108642578125,97,0,NA,230,83.878005027771
"00:00:03.076",68,80.003662109375,97,0,NA,231,83.7764196395874
"00:00:03.092",68,79.796142578125,97,0,NA,232,83.5690145492554
"00:00:03.104",68,79.5129318237305,97,0,NA,233,83.2794332504273
"00:00:03.116",68,79.1833343505859,97,0,NA,234,82.9346148967742
"00:00:03.132",68,78.8244476318359,97,0,NA,235,82.5502073764801
"00:00:03.144",68,78.4606704711914,97,0,NA,236,82.1496942043304
"00:00:03.156",68,78.1066589355469,97,0,NA,237,81.7475786209107
"00:00:03.172",68,77.7721862792969,97,0,NA,238,81.3539390563965
"00:00:03.184",68,77.4621200561523,97,0,NA,239,80.9742536544799
"00:00:03.196",68,77.1813507080078,97,0,NA,240,80.6141755580902
"00:00:03.212",68,76.9347686767578,97,0,NA,241,80.2795107364654
"00:00:03.224",68,76.7272415161133,97,0,NA,242,79.9761950969696
"00:00:03.236",68,76.5465774536133,97,0,NA,243,79.6932573318482
"00:00:03.252",68,76.3927688598633,97,0,NA,244,79.4315292835236
"00:00:03.264",68,76.2633743286133,97,0,NA,245,79.1894087791443
"00:00:03.276",68,76.1535034179688,97,0,NA,246,78.962768316269
"00:00:03.292",68,76.0582885742188,97,0,NA,247,78.7473504543305
"00:00:03.304",68,75.9777221679688,97,0,NA,248,78.5436055660248
"00:00:03.316",68,75.9118041992188,97,0,NA,249,78.3519914150239
"00:00:03.332",68,75.8580932617188,97,0,NA,250,78.1705243587494
"00:00:03.344",68,75.8190307617188,97,0,NA,251,78.0020272731782
"00:00:03.356",68,75.7872924804688,97,0,NA,252,77.8396337032319
"00:00:03.372",68,75.7579956054688,97,0,NA,253,77.6786897182465
"00:00:03.384",68,75.7262496948242,97,0,NA,254,77.5143811702728
"00:00:03.396",68,75.6920700073242,97,0,NA,255,77.3466467857361
"00:00:03.412",68,75.6627731323242,97,0,NA,256,77.182727098465
"00:00:03.424",68,75.6676559448242,97,0,NA,257,77.0520715713501
"00:00:03.436",68,75.7750854492188,97,0,NA,258,77.0241153240204
"00:00:03.452",68,76.0827026367188,97,0,NA,259,77.1997039318085
"00:00:03.464",68,76.7003860473633,97,0,NA,260,77.6949717998505
"00:00:03.476",68,77.6989364624023,97,0,NA,261,78.5904092788696
"00:00:03.492",68,79.0832366943359,97,0,NA,262,79.9028012752533
"00:00:03.504",68,80.7482986450195,97,0,NA,263,81.5392143726349
"00:00:03.516",68,82.5354385375977,97,0,NA,264,83.3497385978699
"00:00:03.532",68,84.2297973632813,97,0,NA,265,85.1233298778535
"00:00:03.544",68,85.6507186889648,97,0,NA,266,86.6764323711395
"00:00:03.556",68,86.6712417602539,97,0,NA,267,87.8735404014587
"00:00:03.572",68,87.2449798583984,97,0,NA,268,88.6557548046112
"00:00:03.584",68,87.379264831543,97,0,NA,269,89.0164453983307
"00:00:03.596",68,87.1351165771484,97,0,NA,270,89.0028991699218
"00:00:03.612",68,86.5979995727539,97,0,NA,271,88.6887545585632
"00:00:03.624",68,85.8558044433594,97,0,NA,272,88.1527469158173
"00:00:03.636",68,84.9817657470703,97,0,NA,273,87.4617021083832
"00:00:03.652",68,84.0296020507813,97,0,NA,274,86.6652185916901
"00:00:03.664",68,83.0530242919922,97,0,NA,275,85.8145658969879
"00:00:03.676",68,82.1008605957031,97,0,NA,276,84.9578092098236
"00:00:03.692",68,81.2194976806641,97,0,NA,277,84.1420981884003
"00:00:03.704",68,80.4602127075195,97,0,NA,278,83.4209225177765
"00:00:03.716",68,79.869384765625,97,0,NA,279,82.8444762229919
"00:00:03.732",68,79.4763107299805,97,0,NA,280,82.4473204612732
"00:00:03.744",68,79.2907638549805,97,0,NA,281,82.2454082965851
"00:00:03.756",68,79.2932052612305,97,0,NA,282,82.2256860733033
"00:00:03.772",68,79.4396896362305,97,0,NA,283,82.3500831127167
"00:00:03.784",68,79.6716232299805,97,0,NA,284,82.5645070075989
"00:00:03.796",68,79.930419921875,97,0,NA,285,82.8130419254303
"00:00:03.812",68,80.157470703125,97,0,NA,286,83.0379183292389
"00:00:03.824",68,80.3064041137695,97,0,NA,287,83.1917726993561
"00:00:03.836",68,80.3454666137695,97,0,NA,288,83.2404103279113
"00:00:03.852",68,80.2575759887695,97,0,NA,289,83.1633155345916
"00:00:03.864",69,80.042724609375,97,0,NA,290,82.9565134048462
"00:00:03.876",69,79.7106857299805,97,0,NA,291,82.6258096694947
"00:00:03.892",69,79.2907638549805,97,0,NA,292,82.1968467235565
"00:00:03.904",69,78.8244476318359,97,0,NA,293,81.7083668708801
"00:00:03.916",69,78.3508071899414,97,0,NA,294,81.1979904174805
"00:00:03.932",69,77.9064636230469,97,0,NA,295,80.7021095752716
"00:00:03.944",69,77.5133895874023,97,0,NA,296,80.2436125278472
"00:00:03.956",69,77.1764678955078,97,0,NA,297,79.8289842605591
"00:00:03.972",69,76.8908233642578,97,0,NA,298,79.4551043510437
"00:00:03.984",69,76.6515579223633,97,0,NA,299,79.1186771392822
"00:00:03.996",69,76.4391555786133,97,0,NA,300,78.8016359806061
"00:00:04.012",69,76.2462768554688,97,0,NA,301,78.4974808692933
"00:00:04.024",69,76.0778198242188,97,0,NA,302,78.2117199897767
"00:00:04.036",69,75.9362182617188,97,0,NA,303,77.9475502967835
"00:00:04.052",69,75.8361206054688,97,0,NA,304,77.7204594612122
"00:00:04.064",69,75.7946166992188,97,0,NA,305,77.5488343238831
"00:00:04.076",69,75.8141479492188,97,0,NA,306,77.4369473457337
"00:00:04.092",69,75.8898315429688,97,0,NA,307,77.3818230628968
"00:00:04.104",69,76.0167846679688,97,0,NA,308,77.3803334236146
"00:00:04.116",69,76.1705932617188,97,0,NA,309,77.4096665382386
"00:00:04.132",69,76.3244094848633,97,0,NA,310,77.4438138008118
"00:00:04.144",69,76.4538040161133,97,0,NA,311,77.4583461284638
"00:00:04.156",69,76.5465774536133,97,0,NA,312,77.4403009414673
"00:00:04.172",69,76.6002883911133,97,0,NA,313,77.3860924243927
"00:00:04.184",69,76.6271438598633,97,0,NA,314,77.306706905365
"00:00:04.196",69,76.6588821411133,97,0,NA,315,77.2330434322357
"00:00:04.212",69,76.7736358642578,97,0,NA,316,77.24338722229
"00:00:04.224",69,77.0885772705078,97,0,NA,317,77.4575047492981
"00:00:04.236",69,77.7379989624023,97,0,NA,318,78.015944480896
"00:00:04.252",69,78.8171234130859,97,0,NA,319,79.0243813991546
"00:00:04.264",69,80.3479080200195,97,0,NA,320,80.5182011127472
"00:00:04.276",69,82.2449035644531,97,0,NA,321,82.4260687828064
"00:00:04.292",69,84.3250198364258,97,0,NA,322,84.5763382911682
"00:00:04.304",69,86.3563003540039,97,0,NA,323,86.7427756786346
"00:00:04.316",69,88.1141357421875,97,0,NA,324,88.6992454528809
"00:00:04.332",69,89.4374008178711,97,0,NA,325,90.2760772705078
"00:00:04.344",69,90.2528457641602,97,0,NA,326,91.3864409923554
"00:00:04.356",69,90.5555801391602,97,0,NA,327,92.0095767974854
"00:00:04.372",69,90.3968887329102,97,0,NA,328,92.1807472705841
"00:00:04.384",69,89.8695373535156,97,0,NA,329,91.978298664093
"00:00:04.396",69,89.0809478759766,97,0,NA,330,91.4981322288514
"00:00:04.412",69,88.1361083984375,97,0,NA,331,90.8370723724365
"00:00:04.424",69,87.1082611083984,97,0,NA,332,90.0634784698486
"00:00:04.436",69,86.0486755371094,97,0,NA,333,89.226026058197
"00:00:04.452",69,84.9866485595703,97,0,NA,334,88.3530201911926
"00:00:04.464",69,83.9539184570313,97,0,NA,335,87.4761228561402
"00:00:04.476",69,82.9797821044922,97,0,NA,336,86.6255464553833
"00:00:04.492",69,82.1081848144531,97,0,NA,337,85.8470673561096
"00:00:04.504",69,81.3806381225586,97,0,NA,338,85.1854014396667
"00:00:04.516",69,80.8386383056641,97,0,NA,339,84.6865465641022
"00:00:04.532",70,80.4943923950195,97,0,NA,340,84.3685081005096
"00:00:04.544",70,80.3332595825195,97,0,NA,341,84.222825050354
"00:00:04.556",70,80.3161697387695,97,0,NA,342,84.2161495685577
"00:00:04.572",70,80.3991775512695,97,0,NA,343,84.3090376853943
"00:00:04.584",70,80.5236892700195,97,0,NA,344,84.4460237026214
"00:00:04.596",70,80.6433181762695,97,0,NA,345,84.5820178985595
"00:00:04.612",70,80.7141189575195,97,0,NA,346,84.672922372818
"00:00:04.624",70,80.7116775512695,97,0,NA,347,84.6927971839905
"00:00:04.636",70,80.6189041137695,97,0,NA,348,84.6222636699676
"00:00:04.652",70,80.4406814575195,97,0,NA,349,84.4633817672729
"00:00:04.664",70,80.179443359375,97,0,NA,350,84.2159149646759
"00:00:04.676",70,79.854736328125,97,0,NA,351,83.8968155384064
"00:00:04.692",70,79.4811935424805,97,0,NA,352,83.5187332630158
"00:00:04.704",70,79.0759124755859,97,0,NA,353,83.0972394943237
"00:00:04.716",70,78.6608657836914,97,0,NA,354,82.6533150672913
"00:00:04.732",70,78.2507095336914,97,0,NA,355,82.2013108730316
"00:00:04.744",70,77.8771667480469,97,0,NA,356,81.773102760315
"00:00:04.756",70,77.5671005249023,97,0,NA,357,81.3966979980468
"00:00:04.772",70,77.3424911499023,97,0,NA,358,81.09606051445
"00:00:04.784",70,77.1959991455078,97,0,NA,359,80.86652135849
"00:00:04.796",70,77.1129913330078,97,0,NA,360,80.6958885192871
"00:00:04.812",70,77.0666046142578,97,0,NA,361,80.5592827796936
"00:00:04.824",70,77.0226593017578,97,0,NA,362,80.4236688613891
"00:00:04.836",70,76.9616241455078,97,0,NA,363,80.2695918083191
"00:00:04.852",70,76.8859405517578,97,0,NA,364,80.0989589691162
"00:00:04.864",70,76.8029327392578,97,0,NA,365,79.9186367988586
"00:00:04.876",70,76.7174758911133,97,0,NA,366,79.7332715988159
"00:00:04.892",70,76.6320266723633,97,0,NA,367,79.5452435016632
"00:00:04.904",70,76.5514602661133,97,0,NA,368,79.3594279289246
"00:00:04.916",70,76.4782180786133,97,0,NA,369,79.1784188747406
"00:00:04.932",70,76.4098587036133,97,0,NA,370,79.0000038146973
"00:00:04.944",70,76.3439407348633,97,0,NA,371,78.8218939304352
"00:00:04.956",70,76.2780227661133,97,0,NA,372,78.6417241096497
"00:00:04.972",70,76.2096557617188,97,0,NA,373,78.4570453166962
"00:00:04.984",70,76.1461791992188,97,0,NA,374,78.2751204967499
"00:00:04.996",70,76.1364135742188,97,0,NA,375,78.1449229717255
"00:00:05.012",70,76.2584915161133,97,0,NA,376,78.1462638378143
"00:00:05.024",70,76.6417922973633,97,0,NA,377,78.4126424789429
"00:00:05.036",70,77.4084091186523,97,0,NA,378,79.0743153095245
"00:00:05.052",70,78.6218032836914,97,0,NA,379,80.2067222595215
"00:00:05.064",70,80.2624588012695,97,0,NA,380,81.8043091297149
"00:00:05.076",70,82.2009582519531,97,0,NA,381,83.7510104179382
"00:00:05.092",70,84.2371215820313,97,0,NA,382,85.8559536933899
"00:00:05.104",70,86.1365661621094,97,0,NA,383,87.8878083229065
"00:00:05.116",70,87.701530456543,97,0,NA,384,89.644540309906
"00:00:05.132",70,88.8148345947266,97,0,NA,385,90.9985172748566
"00:00:05.144",70,89.4325180053711,97,0,NA,386,91.8916642665863
"00:00:05.156",70,89.5838851928711,97,0,NA,387,92.3377976417542
"00:00:05.172",70,89.3421859741211,97,0,NA,388,92.3955948352814
"00:00:05.184",70,88.8001861572266,97,0,NA,389,92.1455383300782
"00:00:05.196",70,88.0653076171875,97,0,NA,390,91.6856656074524
"00:00:05.212",70,87.2303314208984,97,0,NA,391,91.1027302742004
"00:00:05.224",70,86.3563003540039,97,0,NA,392,90.454647064209
"00:00:05.236",70,85.4749374389648,97,0,NA,393,89.7719185352325
"00:00:05.252",70,84.6106643676758,97,0,NA,394,89.0787372589111
"00:00:05.264",70,83.7756958007813,97,0,NA,395,88.3878519535065
"00:00:05.276",70,82.9968719482422,97,0,NA,396,87.7270185947418
"00:00:05.292",70,82.3059463500977,97,0,NA,397,87.1297452449799
"00:00:05.304",70,81.7492904663086,97,0,NA,398,86.6451501846313
"00:00:05.316",70,81.3488998413086,97,0,NA,399,86.2994248867035
"00:00:05.332",70,81.1120758056641,97,0,NA,400,86.1047539710999
"00:00:05.344",70,81.0168609619141,97,0,NA,401,86.0442914962769
"00:00:05.356",70,81.0266265869141,97,0,NA,402,86.0858340263367
"00:00:05.372",70,81.0998687744141,97,0,NA,403,86.1911582946778
"00:00:05.384",70,81.1902008056641,97,0,NA,404,86.3158612251282
"00:00:05.396",70,81.2561264038086,97,0,NA,405,86.4189805984497
"00:00:05.412",70,81.2561264038086,97,0,NA,405,86.4582345485687
"00:00:05.424",70,81.1706695556641,97,0,NA,406,86.4120316505433
"00:00:05.436",70,80.9875640869141,97,0,NA,407,86.2655096054078
"00:00:05.452",70,80.7141189575195,97,0,NA,408,86.0229258537292
"00:00:05.464",70,80.3625564575195,97,0,NA,409,85.6936795711517
"00:00:05.476",70,79.954833984375,97,0,NA,410,85.2972869873047
"00:00:05.492",70,79.5178146362305,97,0,NA,411,84.8588562011719
"00:00:05.504",70,79.0637054443359,97,0,NA,412,84.3896787166595
"00:00:05.516",70,78.6120376586914,97,0,NA,413,83.9087517261505
"00:00:05.532",71,78.1701354980469,97,0,NA,414,83.4234757423401
"00:00:05.544",71,77.7453231811523,97,0,NA,415,82.9414801597595
"00:00:05.556",71,77.3351669311523,97,0,NA,416,82.4608652591705
"00:00:05.572",71,76.9420928955078,97,0,NA,417,81.9845151901245
"00:00:05.584",71,76.5758743286133,97,0,NA,418,81.5227370262146
"00:00:05.596",71,76.2462768554688,97,0,NA,419,81.0861356258393
"00:00:05.612",71,75.9533081054688,97,0,NA,420,80.6758630275727
"00:00:05.624",71,75.7018356323242,97,0,NA,421,80.297931432724
"00:00:05.636",71,75.4894332885742,97,0,NA,422,79.9512114524841
"00:00:05.652",71,75.3087692260742,97,0,NA,423,79.6295921802521
"00:00:05.664",71,75.1500701904297,97,0,NA,424,79.3242921829224
"00:00:05.676",71,75.0157928466797,97,0,NA,425,79.0384545326233
"00:00:05.692",71,74.8961639404297,97,0,NA,426,78.763069152832
"00:00:05.704",71,74.8009490966797,97,0,NA,427,78.5083594322205
"00:00:05.716",71,74.7228164672852,97,0,NA,428,78.2677564620972
"00:00:05.732",71,74.6666641235352,97,0,NA,429,78.0466921329499
"00:00:05.744",71,74.6276016235352,97,0,NA,430,77.8409628868103
"00:00:05.756",71,74.6007461547852,97,0,NA,431,77.6462199687958
"00:00:05.772",71,74.5812149047852,97,0,NA,432,77.4579620361329
"00:00:05.784",71,74.5592422485352,97,0,NA,433,77.2666523456574
"00:00:05.796",71,74.5543594360352,97,0,NA,434,77.0917458534241
"00:00:05.812",71,74.6056289672852,97,0,NA,435,76.9728391170502
"00:00:05.824",71,74.8033905029297,97,0,NA,436,77.0020265579224
"00:00:05.836",71,75.2648239135742,97,0,NA,437,77.3010659217834
"00:00:05.852",71,76.1119995117188,97,0,NA,438,78.0002672672272
"00:00:05.864",71,77.3986434936523,97,0,NA,439,79.1654112339019
"00:00:05.876",71,79.0881195068359,97,0,NA,440,80.7735948562622
"00:00:05.892",71,81.0412750244141,97,0,NA,441,82.698254108429
"00:00:05.904",71,83.0432586669922,97,0,NA,442,84.73277759552
"00:00:05.916",71,84.8670196533203,97,0,NA,443,86.6516404151916
"00:00:05.932",71,86.3270034790039,97,0,NA,444,88.2637186050415
"00:00:05.944",71,87.310905456543,97,0,NA,445,89.4453394412995
"00:00:05.956",71,87.7943115234375,97,0,NA,446,90.1572113037109
"00:00:05.972",71,87.8162841796875,97,0,NA,447,90.4227561950684
"00:00:05.984",71,87.454948425293,97,0,NA,448,90.3056793212891
"00:00:05.996",71,86.8152923583984,97,0,NA,449,89.8989903926849
"00:00:06.012",71,86.0144958496094,97,0,NA,450,89.3111717700959
"00:00:06.024",71,85.1355743408203,97,0,NA,451,88.620203256607
"00:00:06.036",71,84.2395629882813,97,0,NA,452,87.8846786022187
"00:00:06.052",71,83.3606491088867,97,0,NA,453,87.1382510662079
"00:00:06.064",71,82.5207901000977,97,0,NA,454,86.4034123420716
"00:00:06.076",71,81.7322006225586,97,0,NA,455,85.6935975551605
"00:00:06.092",71,81.0266265869141,97,0,NA,456,85.042154788971
"00:00:06.104",71,80.4455642700195,97,0,NA,457,84.4931745529175
"00:00:06.116",71,80.032958984375,97,0,NA,458,84.0944931507111
"00:00:06.132",71,79.801025390625,97,0,NA,459,83.8635895252228
"00:00:06.144",71,79.757080078125,97,0,NA,460,83.8134262561798
"00:00:06.156",71,79.854736328125,97,0,NA,461,83.9034912586212
"00:00:06.172",71,80.047607421875,97,0,NA,462,84.0918228626251
"00:00:06.184",71,80.2722244262695,97,0,NA,463,84.3179275989532
"00:00:06.196",72,80.4773025512695,97,0,NA,464,84.5315127372741
"00:00:06.212",72,80.6140213012695,97,0,NA,465,84.6831471920013
"00:00:06.224",72,80.6555252075195,97,0,NA,466,84.743839263916
"00:00:06.236",72,80.5896072387695,97,0,NA,467,84.698406457901
"00:00:06.252",72,80.4211502075195,97,0,NA,468,84.5483746528625
"00:00:06.264",72,80.159912109375,97,0,NA,469,84.300297498703
"00:00:06.276",72,79.832763671875,97,0,NA,470,83.978146314621
"00:00:06.292",72,79.4641036987305,97,0,NA,471,83.6042602062226
"00:00:06.304",72,79.0710296630859,97,0,NA,472,83.1944394111633
"00:00:06.316",72,78.6657485961914,97,0,NA,473,82.7601280212402
"00:00:06.332",72,78.2531509399414,97,0,NA,474,82.3058350086212
"00:00:06.344",72,77.8429870605469,97,0,NA,475,81.8410820960999
"00:00:06.356",72,77.4401473999023,97,0,NA,476,81.3708357810974
"00:00:06.372",72,77.0666046142578,97,0,NA,477,80.9172976016998
"00:00:06.384",72,76.7345657348633,97,0,NA,478,80.4935901165009
"00:00:06.396",72,76.4635696411133,97,0,NA,479,80.1205492019653
"00:00:06.412",72,76.2511672973633,97,0,NA,480,79.7976334095001
"00:00:06.424",72,76.0851440429688,97,0,NA,481,79.5144591331483
"00:00:06.436",72,75.9484252929688,97,0,NA,482,79.255401134491
"00:00:06.452",72,75.8287963867188,97,0,NA,483,79.0091605186463
"00:00:06.464",72,75.7140426635742,97,0,NA,484,78.7640566825867
"00:00:06.476",72,75.6090621948242,97,0,NA,485,78.5251400470734
"00:00:06.492",72,75.5211715698242,97,0,NA,486,78.3000326156616
"00:00:06.504",72,75.4625778198242,97,0,NA,487,78.1014754772186
"00:00:06.516",72,75.4406051635742,97,0,NA,488,77.9377083778381
"00:00:06.532",72,75.4576950073242,97,0,NA,489,77.8123171329498
"00:00:06.544",72,75.5016403198242,97,0,NA,490,77.7143154144287
"00:00:06.556",72,75.5626754760742,97,0,NA,491,77.6347768306732
"00:00:06.572",72,75.6334762573242,97,0,NA,492,77.5669112205505
"00:00:06.584",72,75.7067184448242,97,0,NA,493,77.5036995410919
"00:00:06.596",72,75.7921752929688,97,0,NA,494,77.4549913406373
"00:00:06.612",72,75.9313354492188,97,0,NA,495,77.4626569747925
"00:00:06.624",72,76.2096557617188,97,0,NA,496,77.6138315200806
"00:00:06.636",72,76.7467727661133,97,0,NA,497,78.0325002670288
"00:00:06.652",72,77.6452255249023,97,0,NA,498,78.8292896747589
"00:00:06.664",72,78.9611663818359,97,0,NA,499,80.0716438293457
"00:00:06.676",72,80.6628494262695,97,0,NA,500,81.7408633232116
"00:00:06.692",72,82.6160049438477,97,0,NA,501,83.7147328853608
"00:00:06.704",72,84.6253128051758,97,0,NA,502,85.8057909011841
"00:00:06.716",72,86.4710464477539,97,0,NA,503,87.796065568924
"00:00:06.732",72,87.9822998046875,97,0,NA,504,89.5095391273499
"00:00:06.744",72,89.0467681884766,97,0,NA,505,90.8234543800354
"00:00:06.756",72,89.6351547241211,97,0,NA,506,91.6945524215698
"00:00:06.772",72,89.7718811035156,97,0,NA,507,92.1323773860931
"00:00:06.784",72,89.5277328491211,97,0,NA,508,92.1936004161835
"00:00:06.796",72,88.9906158447266,97,0,NA,509,91.954225063324
"00:00:06.812",72,88.2484130859375,97,0,NA,510,91.4929790496826
"00:00:06.824",72,87.384147644043,97,0,NA,511,90.8864765167237
"00:00:06.836",72,86.4466323852539,97,0,NA,512,90.1797158718109
"00:00:06.852",72,85.4847030639648,97,0,NA,513,89.419243812561
"00:00:06.864",73,84.5252151489258,97,0,NA,514,88.6311528682709
"00:00:06.876",73,83.6096725463867,97,0,NA,515,87.8570232391357
"00:00:06.892",73,82.7698211669922,97,0,NA,516,87.1299741268158
"00:00:06.904",73,82.0495910644531,97,0,NA,517,86.4963009357452
"00:00:06.916",73,81.4734115600586,97,0,NA,518,85.9841711521149
"00:00:06.932",73,81.0534820556641,97,0,NA,519,85.6102857589722
"00:00:06.944",73,80.7824859619141,97,0,NA,520,85.3722109794617
"00:00:06.956",73,80.6359939575195,97,0,NA,521,85.2501716613769
"00:00:06.972",73,80.5700759887695,97,0,NA,522,85.2041285037994
"00:00:06.984",73,80.5432205200195,97,0,NA,523,85.1950879096985
"00:00:06.996",73,80.5188064575195,97,0,NA,524,85.1876494884491
"00:00:07.012",73,80.4626541137695,97,0,NA,525,85.1477098464966
"00:00:07.024",73,80.3503494262695,97,0,NA,526,85.0498631000519
"00:00:07.036",73,80.162353515625,97,0,NA,527,84.8728156089783
"00:00:07.052",73,79.891357421875,97,0,NA,528,84.6068930625916
"00:00:07.064",73,79.5422286987305,97,0,NA,529,84.2543692588806
"00:00:07.076",73,79.1345062255859,97,0,NA,530,83.8323414325714
"00:00:07.092",73,78.6877212524414,97,0,NA,531,83.3585097789764
"00:00:07.104",73,78.2336120605469,97,0,NA,532,82.8633918762207
"00:00:07.116",73,77.7917175292969,97,0,NA,533,82.3662977218628
"00:00:07.132",73,77.3815536499023,97,0,NA,534,81.8871250152587
"00:00:07.144",73,77.0031280517578,97,0,NA,535,81.4268729686737
"00:00:07.156",73,76.6662063598633,97,0,NA,536,80.9962990283966
"00:00:07.172",73,76.3659133911133,97,0,NA,537,80.5918250083923
"00:00:07.184",73,76.1168823242188,97,0,NA,538,80.2292287349701
"00:00:07.196",73,75.9142456054688,97,0,NA,539,79.905244588852
"00:00:07.212",73,75.7702026367188,97,0,NA,540,79.6335217952729
"00:00:07.224",73,75.6749801635742,97,0,NA,541,79.4061181545257
"00:00:07.236",73,75.6261520385742,97,0,NA,542,79.2221331596374
"00:00:07.252",73,75.6115036010742,97,0,NA,543,79.0708019733429
"00:00:07.264",73,75.6212692260742,97,0,NA,544,78.9434270858765
"00:00:07.276",73,75.6456832885742,97,0,NA,545,78.8310058116913
"00:00:07.292",73,75.6847457885742,97,0,NA,546,78.7339959144592
"00:00:07.304",73,75.7335739135742,97,0,NA,547,78.6479723453522
"00:00:07.316",73,75.7921752929688,97,0,NA,548,78.573247909546
"00:00:07.332",73,75.8580932617188,97,0,NA,549,78.5076713562012
"00:00:07.344",73,75.9288940429688,97,0,NA,550,78.4490375518799
"00:00:07.356",73,76.0021362304688,97,0,NA,551,78.3950576782227
"00:00:07.372",73,76.0680541992188,97,0,NA,552,78.3360424041749
"00:00:07.384",73,76.1266479492188,97,0,NA,553,78.2717628479004
"00:00:07.396",73,76.1681518554688,97,0,NA,554,78.1922245025635
"00:00:07.412",73,76.1803588867188,97,0,NA,555,78.0846862792969
"00:00:07.424",73,76.1705932617188,97,0,NA,556,77.9555568695069
"00:00:07.436",73,76.1779174804688,97,0,NA,557,77.8432121276856
"00:00:07.452",73,76.2877883911133,97,0,NA,558,77.8336429595947
"00:00:07.464",73,76.6393508911133,97,0,NA,559,78.069198846817
"00:00:07.476",73,77.3815536499023,97,0,NA,560,78.7063813209533
"00:00:07.492",73,78.6071548461914,97,0,NA,561,79.8501560688019
"00:00:07.504",73,80.3161697387695,97,0,NA,562,81.5156445503235
"00:00:07.516",73,82.3962783813477,97,0,NA,563,83.6056334972382
"00:00:07.532",73,84.6301956176758,97,0,NA,564,85.9144344329834
"00:00:07.544",73,86.7640228271484,97,0,NA,565,88.1929552555084
"00:00:07.556",73,88.563362121582,97,0,NA,566,90.2036702632904
"00:00:07.572",73,89.8768615722656,97,0,NA,567,91.7847747802734
"00:00:07.584",73,90.6337051391602,97,0,NA,568,92.8502702713013
"00:00:07.596",73,90.8583221435547,97,0,NA,569,93.4071905612946
"00:00:07.612",73,90.6263809204102,97,0,NA,570,93.5145719051362
"00:00:07.624",73,90.0550842285156,97,0,NA,571,93.2753496170044
"00:00:07.636",73,89.2591781616211,97,0,NA,572,92.793664932251
"00:00:07.652",73,88.343635559082,97,0,NA,573,92.1674716472625
"00:00:07.664",73,87.381706237793,97,0,NA,574,91.4662809371949
"00:00:07.676",73,86.4173355102539,97,0,NA,575,90.7325885295868
"00:00:07.692",73,85.4602890014648,97,0,NA,576,89.9760837554931
"00:00:07.704",73,84.5081253051758,97,0,NA,577,89.1945540904999
"00:00:07.716",73,83.5754928588867,97,0,NA,578,88.4028005599975
"00:00:07.732",73,82.6819229125977,97,0,NA,579,87.6209647655487
"00:00:07.744",73,81.8567199707031,97,0,NA,580,86.8795719146728
"00:00:07.756",73,81.1413726806641,97,0,NA,581,86.2222471237183
"00:00:07.772",73,80.5774002075195,97,0,NA,582,85.6939425468445
"00:00:07.784",73,80.177001953125,97,0,NA,583,85.3115880489349
"00:00:07.796",73,79.930419921875,97,0,NA,584,85.0705373287201
"00:00:07.812",73,79.813232421875,97,0,NA,585,84.9511754512787
"00:00:07.824",73,79.788818359375,97,0,NA,586,84.9209249019623
"00:00:07.836",73,79.810791015625,97,0,NA,587,84.9362981319427
"00:00:07.852",73,79.832763671875,97,0,NA,588,84.952358007431
"00:00:07.864",74,79.808349609375,97,0,NA,589,84.9227178096771
"00:00:07.876",74,79.7204513549805,97,0,NA,590,84.8288304805756
"00:00:07.892",74,79.5544357299805,97,0,NA,591,84.6540789604187
"00:00:07.904",74,79.3127365112305,97,0,NA,592,84.3984558582306
"00:00:07.916",74,79.0051116943359,97,0,NA,593,84.069354057312
"00:00:07.932",74,78.6511001586914,97,0,NA,594,83.6842522621155
"00:00:07.944",74,78.2726821899414,97,0,NA,595,83.2636811733246
"00:00:07.956",74,77.8820495605469,97,0,NA,596,82.8190698623658
"00:00:07.972",74,77.5011825561523,97,0,NA,597,82.3720169067382
"00:00:07.984",74,77.1349639892578,97,0,NA,598,81.9277102947235
"00:00:07.996",74,76.7858428955078,97,0,NA,599,81.4890568256378
"00:00:08.012",74,76.4513626098633,97,0,NA,600,81.0541341304779
"00:00:08.024",74,76.1315307617188,97,0,NA,601,80.6234073638917
"00:00:08.036",74,75.8312377929688,97,0,NA,602,80.2022247314454
"00:00:08.052",74,75.5553512573242,97,0,NA,603,79.796064376831
"00:00:08.064",74,75.3160934448242,97,0,NA,604,79.4179112911224
"00:00:08.076",74,75.1158905029297,97,0,NA,605,79.0713362693787
"00:00:08.092",74,74.9596405029297,97,0,NA,606,78.7624578475952
"00:00:08.104",74,74.8497772216797,97,0,NA,607,78.4950833320618
"00:00:08.116",74,74.7716522216797,97,0,NA,608,78.2560138702393
"00:00:08.132",74,74.7203750610352,97,0,NA,609,78.0413508415223
"00:00:08.144",74,74.6886367797852,97,0,NA,610,77.8446242809296
"00:00:08.156",74,74.6691055297852,97,0,NA,611,77.6591129302979
"00:00:08.172",74,74.6593399047852,97,0,NA,612,77.4827568531037
"00:00:08.188",74,74.6593399047852,97,0,NA,612,77.3158612251282
"00:00:08.196",74,74.6739883422852,97,0,NA,613,77.1636140346528
"00:00:08.212",74,74.7032852172852,97,0,NA,614,77.0264730453492
"00:00:08.224",74,74.7447891235352,97,0,NA,615,76.9024546146393
"00:00:08.236",74,74.7863006591797,97,0,NA,616,76.7797408103943
"00:00:08.252",74,74.8131561279297,97,0,NA,617,76.6436681747437
"00:00:08.264",74,74.8155975341797,97,0,NA,618,76.4840207099915
"00:00:08.276",74,74.7887420654297,97,0,NA,619,76.2951526641846
"00:00:08.292",74,74.7447891235352,97,0,NA,620,76.0883479118348
"00:00:08.304",74,74.7130508422852,97,0,NA,621,75.8923842906952
"00:00:08.316",74,74.7814178466797,97,0,NA,622,75.7955341339111
"00:00:08.332",74,75.0719451904297,97,0,NA,623,75.9229807853699
"00:00:08.344",74,75.7311325073242,97,0,NA,624,76.4281663894653
"00:00:08.356",74,76.8639678955078,97,0,NA,625,77.4275996685028
"00:00:08.372",74,78.4924087524414,97,0,NA,626,78.958039522171
"00:00:08.384",74,80.5285720825195,97,0,NA,627,80.9470906257629
"00:00:08.396",74,82.7795867919922,97,0,NA,628,83.2146232128143
"00:00:08.412",74,84.9866485595703,97,0,NA,629,85.5085470676422
"00:00:08.424",74,86.9031829833984,97,0,NA,630,87.5809142589569
"00:00:08.436",74,88.358283996582,97,0,NA,631,89.2517397403717
"00:00:08.452",74,89.2665023803711,97,0,NA,632,90.421154499054
"00:00:08.464",74,89.6302719116211,97,0,NA,633,91.0745022296906
"00:00:08.476",74,89.5252914428711,97,0,NA,634,91.2704677581787
"00:00:08.492",74,89.0662994384766,97,0,NA,635,91.1091411113739
"00:00:08.504",74,88.377815246582,97,0,NA,636,90.7039787769317
"00:00:08.516",74,87.567253112793,97,0,NA,637,90.1552233695984
"00:00:08.532",74,86.7078628540039,97,0,NA,638,89.5323097705841
"00:00:08.544",74,85.8362731933594,97,0,NA,639,88.8703408241272
"00:00:08.556",74,84.9597930908203,97,0,NA,640,88.1762442588806
"00:00:08.572",74,84.0759887695313,97,0,NA,641,87.4474334716797
"00:00:08.584",74,83.1824188232422,97,0,NA,642,86.6812381744385
"00:00:08.596",74,82.2986221313477,97,0,NA,643,85.8968920707703
"00:00:08.612",74,81.4709701538086,97,0,NA,644,85.1410720348358
"00:00:08.624",74,80.7458572387695,97,0,NA,645,84.4619269371032
"00:00:08.636",74,80.162353515625,97,0,NA,646,83.9017312526703
"00:00:08.652",74,79.7424240112305,97,0,NA,647,83.4868752956391
"00:00:08.664",74,79.4811935424805,97,0,NA,648,83.21759557724
"00:00:08.676",74,79.3493576049805,97,0,NA,649,83.0695469379425
"00:00:08.692",74,79.3054122924805,97,0,NA,650,83.0052690505982
"00:00:08.704",74,79.3078536987305,97,0,NA,651,82.9860045909882
"00:00:08.716",74,79.3151779174805,97,0,NA,652,82.9716992378235
"00:00:08.732",74,79.2932052612305,97,0,NA,653,82.9283258914948
"00:00:08.744",74,79.2199554443359,97,0,NA,654,82.8329887390136
"00:00:08.756",74,79.0807952880859,97,0,NA,655,82.6694521903991
"00:00:08.772",74,78.8732757568359,97,0,NA,656,82.4332075119018
"00:00:08.784",74,78.6022720336914,97,0,NA,657,82.1269936561584
"00:00:08.796",74,78.2800064086914,97,0,NA,658,81.7610490322113
"00:00:08.812",74,77.9211120605469,97,0,NA,659,81.3484048843384
"00:00:08.824",74,77.5402450561523,97,0,NA,660,80.9025726318359
"00:00:08.836",74,77.1520538330078,97,0,NA,661,80.4375140666962
"00:00:08.852",74,76.7711944580078,97,0,NA,662,79.9676563739776
"00:00:08.864",74,76.4049758911133,97,0,NA,663,79.5005376338959
"00:00:08.876",74,76.0607299804688,97,0,NA,664,79.0439472198487
"00:00:08.892",74,75.7482223510742,97,0,NA,665,78.6083374023437
"00:00:08.904",74,75.4747848510742,97,0,NA,666,78.2020318508148
"00:00:08.916",74,75.2379608154297,97,0,NA,667,77.8237948417664
"00:00:08.932",74,75.0402069091797,97,0,NA,668,77.4772272109985
"00:00:08.944",74,74.8741912841797,97,0,NA,669,77.1562180519104
"00:00:08.956",74,74.7325820922852,97,0,NA,670,76.8544273376465
"00:00:08.972",74,74.6031875610352,97,0,NA,671,76.5604259967804
"00:00:08.984",74,74.4835586547852,97,0,NA,672,76.2721467018128
"00:00:08.996",74,74.3712539672852,97,0,NA,673,75.9874532222748
"00:00:09.012",74,74.2711563110352,97,0,NA,674,75.7114572525025
"00:00:09.024",74,74.1930236816406,97,0,NA,675,75.4542982578277
"00:00:09.036",74,74.1441955566406,97,0,NA,676,75.224002122879
"00:00:09.052",74,74.1173400878906,97,0,NA,677,75.014152765274
"00:00:09.068",74,74.1173400878906,97,0,NA,677,74.8303196430206
"00:00:09.076",74,74.1344299316406,97,0,NA,678,74.6635763645172
"00:00:09.092",74,74.1734924316406,97,0,NA,679,74.519339799881
"00:00:09.104",74,74.2296447753906,97,0,NA,680,74.3934137821197
"00:00:09.116",74,74.3028945922852,97,0,NA,681,74.2863399982453
"00:00:09.132",74,74.3883438110352,97,0,NA,682,74.1937546730042
"00:00:09.144",74,74.4762344360352,97,0,NA,683,74.106281042099
"00:00:09.156",74,74.5641250610352,97,0,NA,684,74.0215539932251
"00:00:09.172",74,74.6471328735352,97,0,NA,685,73.9346907138825
"00:00:09.184",74,74.7203750610352,97,0,NA,686,73.8406558036805
"00:00:09.196",74,74.7887420654297,97,0,NA,687,73.7440345287323
"00:00:09.208",74,74.8522186279297,97,0,NA,688,73.644659280777
"00:00:09.224",74,74.9279022216797,97,0,NA,689,73.5594747066498
"00:00:09.236",74,75.0670623779297,97,0,NA,690,73.5401318073273
"00:00:09.248",74,75.3820114135742,97,0,NA,691,73.7009265422821
"00:00:09.264",74,76.0241088867188,97,0,NA,692,74.1987118721009
"00:00:09.276",74,77.1227569580078,97,0,NA,693,75.1731133460998
"00:00:09.288",74,78.7316665649414,97,0,NA,694,76.6921091079712
"00:00:09.304",74,80.7922515869141,97,0,NA,695,78.7130587100983
"00:00:09.316",74,83.1262664794922,97,0,NA,696,81.0718314647675
"00:00:09.328",74,85.4749374389648,97,0,NA,697,83.5181982517242
"00:00:09.344",74,87.577018737793,97,0,NA,698,85.79137134552
"00:00:09.356",74,89.2323150634766,97,0,NA,699,87.6834495067597
"00:00:09.368",74,90.3382949829102,97,0,NA,700,89.0779392719269
"00:00:09.384",74,90.8778533935547,97,0,NA,701,89.9405694007874
"00:00:09.396",74,90.8998260498047,97,0,NA,702,90.302474975586
"00:00:09.408",74,90.5140762329102,97,0,NA,703,90.2573447227478
"00:00:09.424",74,89.8451232910156,97,0,NA,704,89.9169566631317
"00:00:09.436",74,89.0150299072266,97,0,NA,705,89.3945233821869
"00:00:09.452",74,88.1190185546875,97,0,NA,706,88.7802317142487
"00:00:09.464",74,87.2156829833984,97,0,NA,707,88.1306154727935
"00:00:09.476",74,86.3343276977539,97,0,NA,708,87.4747502803802
"00:00:09.492",74,85.4749374389648,97,0,NA,709,86.813307762146
"00:00:09.504",74,84.6472854614258,97,0,NA,710,86.1567475795746
"00:00:09.516",74,83.8757934570313,97,0,NA,711,85.5304832458497
"00:00:09.528",73,83.1946258544922,97,0,NA,712,84.9704341888428
"00:00:09.544",73,82.6477432250977,97,0,NA,713,84.5233836174012
"00:00:09.556",73,82.2693252563477,97,0,NA,714,84.2277076244355
"00:00:09.568",73,82.0520324707031,97,0,NA,715,84.0813312530517
"00:00:09.584",73,81.9836730957031,97,0,NA,716,84.0770978927612
"00:00:09.596",73,82.0202941894531,97,0,NA,717,84.1757087707519
"00:00:09.608",73,82.1130676269531,97,0,NA,718,84.3316164016723
"00:00:09.624",73,82.2156066894531,97,0,NA,719,84.5001888275146
"00:00:09.636",73,82.2937393188477,97,0,NA,720,84.6475591659546
"00:00:09.648",73,82.3157119750977,97,0,NA,721,84.7412111759186
"00:00:09.664",73,82.2668838500977,97,0,NA,722,84.7647490501404
"00:00:09.676",73,82.1350402832031,97,0,NA,723,84.7037456035614
"00:00:09.688",73,81.9275207519531,97,0,NA,724,84.5629460811615
"00:00:09.704",73,81.6540756225586,97,0,NA,725,84.3497359752655
"00:00:09.716",73,81.3244857788086,97,0,NA,726,84.0718359947205
"00:00:09.732",73,80.9655914306641,97,0,NA,727,83.7543318271637
"00:00:09.744",73,80.5896072387695,97,0,NA,728,83.4085223674774
"00:00:09.756",73,80.208740234375,97,0,NA,729,83.0460805892944
"00:00:09.768",73,79.842529296875,97,0,NA,730,82.6863927841187
"00:00:09.784",73,79.4885177612305,97,0,NA,731,82.3274602890015
"00:00:09.796",73,79.1467132568359,97,0,NA,732,81.9696719646453
"00:00:09.808",73,78.8293304443359,97,0,NA,733,81.6256239414215
"00:00:09.824",73,78.5290298461914,97,0,NA,734,81.2887399196625
"00:00:09.836",73,78.2384948730469,97,0,NA,735,80.9522371292115
"00:00:09.848",73,77.9552917480469,97,0,NA,736,80.6139869689942
"00:00:09.864",73,77.6745223999023,97,0,NA,737,80.269320487976
"00:00:09.876",73,77.3986434936523,97,0,NA,738,79.920770406723
"00:00:09.888",73,77.1349639892578,97,0,NA,739,79.5757985115051
"00:00:09.904",73,76.9103546142578,97,0,NA,740,79.2616567611694
"00:00:09.916",73,76.7394485473633,97,0,NA,741,78.9941992759705
"00:00:09.928",73,76.6344680786133,97,0,NA,742,78.7873265743256
"00:00:09.944",73,76.5807571411133,97,0,NA,743,78.6284427642822
"00:00:09.956",73,76.5587844848633,97,0,NA,744,78.499618768692
"00:00:09.968",73,76.5343704223633,97,0,NA,745,78.367666721344
"00:00:09.984",73,76.4806594848633,97,0,NA,746,78.2056548595429
"00:00:09.996",73,76.3952102661133,97,0,NA,747,78.0102262496948
"00:00:10.008",73,76.2853469848633,97,0,NA,748,77.7877132892609
"00:00:10.024",73,76.1730346679688,97,0,NA,749,77.5593180656434
"00:00:10.036",73,76.0778198242188,97,0,NA,750,77.3445105552674
"00:00:10.048",73,76.0167846679688,97,0,NA,751,77.1609072685242
"00:00:10.064",73,75.9899291992188,97,0,NA,752,77.0095763206483
"00:00:10.076",73,75.9972534179688,97,0,NA,753,76.8915858268738
"00:00:10.092",73,76.0460815429688,97,0,NA,754,76.8153281211854
"00:00:10.104",73,76.1583862304688,97,0,NA,755,76.8040728569031
"00:00:10.116",73,76.4147415161133,97,0,NA,756,76.9403777122498
"00:00:10.132",73,76.9396514892578,97,0,NA,757,77.3532483577728
"00:00:10.144",73,77.8649597167969,97,0,NA,758,78.1829206943512
"00:00:10.156",73,79.2761154174805,97,0,NA,759,79.5273563861847
"00:00:10.172",73,81.1633453369141,97,0,NA,760,81.3919649124146
"00:00:10.184",73,83.4143600463867,97,0,NA,761,83.6793341636658
"00:00:10.196",73,85.8094177246094,97,0,NA,762,86.181090593338
"00:00:10.208",73,88.0823974609375,97,0,NA,763,88.6356146335602
"00:00:10.224",73,89.9916076660156,97,0,NA,764,90.7973997592926
"00:00:10.236",73,91.3685836791992,97,0,NA,765,92.4866135120392
"00:00:10.252",73,92.1400756835938,97,0,NA,766,93.6133737564087
"00:00:10.264",73,92.3207473754883,97,0,NA,767,94.1734228134155
"00:00:10.276",73,91.9862670898438,97,0,NA,768,94.2239658832551
"00:00:10.288",73,91.2709274291992,97,0,NA,769,93.8831970691681
"00:00:10.304",73,90.3065567016602,97,0,NA,770,93.2710428237915
"00:00:10.316",73,89.2274322509766,97,0,NA,771,92.5139982700348
"00:00:10.332",73,88.1312255859375,97,0,NA,772,91.7061488628387
"00:00:10.344",73,87.0789642333984,97,0,NA,773,90.9079883098602
"00:00:10.356",73,86.0877380371094,97,0,NA,774,90.1379797458649
"00:00:10.368",73,85.1502227783203,97,0,NA,775,89.3907063007355
"00:00:10.384",73,84.2517776489258,97,0,NA,776,88.6532056331635
"00:00:10.396",73,83.3899459838867,97,0,NA,777,87.9242420196533
"00:00:10.412",73,82.5842666625977,97,0,NA,778,87.2244985103608
"00:00:10.424",73,81.8591613769531,97,0,NA,779,86.5801515579223
"00:00:10.436",73,81.2585678100586,97,0,NA,780,86.0376567840576
"00:00:10.452",73,80.8142242431641,97,0,NA,781,85.6326434612275
"00:00:10.464",73,80.5383377075195,97,0,NA,782,85.3822014331817
"00:00:10.476",73,80.4162673950195,97,0,NA,783,85.2769541740417
"00:00:10.492",73,80.4211502075195,97,0,NA,784,85.2948453426361
"00:00:10.504",73,80.5041580200195,97,0,NA,785,85.3910140991211
"00:00:10.516",73,80.6042556762695,97,0,NA,786,85.5068666934967
"00:00:10.528",72,80.6701736450195,97,0,NA,787,85.5916676521301
"00:00:10.544",72,80.6530838012695,97,0,NA,788,85.595520734787
"00:00:10.556",72,80.5310134887695,97,0,NA,789,85.4938592910766
"00:00:10.572",72,80.2966384887695,97,0,NA,790,85.2760784626007
"00:00:10.584",72,79.962158203125,97,0,NA,791,84.9508681297302
"00:00:10.596",72,79.5544357299805,97,0,NA,792,84.5419631004334
"00:00:10.608",72,79.1003265380859,97,0,NA,793,84.0739300251007
"00:00:10.624",72,78.6364517211914,97,0,NA,794,83.5819404125214
"00:00:10.636",72,78.1823425292969,97,0,NA,795,83.0852203369141
"00:00:10.652",72,77.7575378417969,97,0,NA,796,82.6036138534546
"00:00:10.664",72,77.3620223999023,97,0,NA,797,82.1380214691162
"00:00:10.676",72,77.0080108642578,97,0,NA,798,81.7015731334686
"00:00:10.688",72,76.6930618286133,97,0,NA,799,81.2931244373322
"00:00:10.704",72,76.4123001098633,97,0,NA,800,80.9090209007263
"00:00:10.716",72,76.1535034179688,97,0,NA,801,80.5381085872651
"00:00:10.732",72,75.9166870117188,97,0,NA,802,80.1810891628266
"00:00:10.744",72,75.6945114135742,97,0,NA,803,79.8313100337982
"00:00:10.756",72,75.4845504760742,97,0,NA,804,79.4868025779724
"00:00:10.768",72,75.2916793823242,97,0,NA,805,79.1528236865997
"00:00:10.784",72,75.1280975341797,97,0,NA,806,78.8421068191528
"00:00:10.796",72,74.9962615966797,97,0,NA,807,78.558023929596
"00:00:10.812",72,74.8937225341797,97,0,NA,808,78.2991180419922
"00:00:10.824",72,74.8155975341797,97,0,NA,809,78.0614218711853
"00:00:10.836",72,74.7545623779297,97,0,NA,810,77.8383741378784
"00:00:10.848",72,74.7032852172852,97,0,NA,811,77.6231770515442
"00:00:10.864",72,74.6520156860352,97,0,NA,812,77.4063851833344
"00:00:10.876",72,74.6080703735352,97,0,NA,813,77.195315361023
"00:00:10.888",72,74.5616836547852,97,0,NA,814,76.980430841446
"00:00:10.904",72,74.5079727172852,97,0,NA,815,76.756772518158
"00:00:10.916",72,74.4469375610352,97,0,NA,816,76.5241115093232
"00:00:10.928",72,74.3663711547852,97,0,NA,817,76.2700119018555
"00:00:10.944",72,74.2589492797852,97,0,NA,818,75.9865391254425
"00:00:10.956",72,74.1319885253906,97,0,NA,819,75.6801705360412
"00:00:10.968",72,73.9952697753906,97,0,NA,820,75.3600764274597
"00:00:10.984",72,73.8634338378906,97,0,NA,821,75.0405926704406
"00:00:10.996",72,73.7779846191406,97,0,NA,822,74.7633757591247
"00:00:11.008",72,73.8292541503906,97,0,NA,823,74.6202073097229
"00:00:11.024",72,74.1441955566406,97,0,NA,824,74.7423129081726
"00:00:11.036",72,74.8863983154297,97,0,NA,825,75.3015217781067
"00:00:11.048",72,76.1657104492188,97,0,NA,826,76.421033859253
"00:00:11.064",72,77.9992370605469,97,0,NA,827,78.1347389221192
"00:00:11.076",72,80.2795486450195,97,0,NA,828,80.3525266647339
"00:00:11.092",72,82.7893524169922,97,0,NA,829,82.8710663318634
"00:00:11.104",72,85.2478790283203,97,0,NA,830,85.4167602062225
"00:00:11.116",72,87.396354675293,97,0,NA,831,87.7292320728302
"00:00:11.132",72,89.0467681884766,97,0,NA,832,89.6107816696167
"00:00:11.144",72,90.1234436035156,97,0,NA,833,90.9701685905456
"00:00:11.156",72,90.6312637329102,97,0,NA,834,91.7943463325501
"00:00:11.172",72,90.6459121704102,97,0,NA,835,92.1412217617035
"00:00:11.184",72,90.2772598266602,97,0,NA,836,92.1052541732789
"00:00:11.196",72,89.6522445678711,97,0,NA,837,91.8014032840729
"00:00:11.208",72,88.8807525634766,97,0,NA,838,91.3315439224244
"00:00:11.224",72,88.0335693359375,97,0,NA,839,90.7618842124939
"00:00:11.236",72,87.1644134521484,97,0,NA,840,90.1437773704528
"00:00:11.252",72,86.2952651977539,97,0,NA,841,89.498517036438
"00:00:11.264",72,85.4187850952148,97,0,NA,842,88.8187639713287
"00:00:11.276",72,84.5252151489258,97,0,NA,843,88.0945310592652
"00:00:11.288",72,83.6292037963867,97,0,NA,844,87.33993268013
"00:00:11.304",72,82.7527313232422,97,0,NA,845,86.5768728256226
"00:00:11.316",72,81.9397277832031,97,0,NA,846,85.8498921394348
"00:00:11.332",72,81.2317047119141,97,0,NA,847,85.2024855613709
"00:00:11.344",72,80.6628494262695,97,0,NA,848,84.6721210479736
"00:00:11.356",72,80.242919921875,97,0,NA,849,84.27290558815
"00:00:11.368",72,79.947509765625,97,0,NA,850,83.9850866794586
"00:00:11.384",72,79.7448654174805,97,0,NA,851,83.7808020114899
"00:00:11.396",72,79.5983810424805,97,0,NA,852,83.6263446807862
"00:00:11.408",72,79.4641036987305,97,0,NA,853,83.4795167446137
"00:00:11.424",72,79.3127365112305,97,0,NA,854,83.311402797699
"00:00:11.436",72,79.1296234130859,97,0,NA,855,83.1068127155304
"00:00:11.452",72,78.9074554443359,97,0,NA,856,82.8574454784393
"00:00:11.464",72,78.6413345336914,97,0,NA,857,82.5571825504303
"00:00:11.476",72,78.3386001586914,97,0,NA,858,82.2119898796082
"00:00:11.488",72,78.0065612792969,97,0,NA,859,81.8280322551728
"00:00:11.504",72,77.6501083374023,97,0,NA,860,81.4092843532562
"00:00:11.516",72,77.2814559936523,97,0,NA,861,80.96719789505
"00:00:11.528",71,76.9152374267578,97,0,NA,862,80.5160248279571
"00:00:11.544",71,76.5563430786133,97,0,NA,863,80.0607316493988
"00:00:11.556",71,76.2194213867188,97,0,NA,864,79.616195678711
"00:00:11.568",71,75.9166870117188,97,0,NA,865,79.195318222046
"00:00:11.584",71,75.6408004760742,97,0,NA,866,78.7918281555176
"00:00:11.596",71,75.3991012573242,97,0,NA,867,78.4139039516449
"00:00:11.608",71,75.1866912841797,97,0,NA,868,78.0577158927918
"00:00:11.624",71,74.9962615966797,97,0,NA,869,77.7168703079224
"00:00:11.636",71,74.8204803466797,97,0,NA,870,77.3847222328186
"00:00:11.648",71,74.6593399047852,97,0,NA,871,77.0617218017579
"00:00:11.664",71,74.5152969360352,97,0,NA,872,76.7507832050324
"00:00:11.676",71,74.3859024047852,97,0,NA,873,76.4499917030335
"00:00:11.688",71,74.2784805297852,97,0,NA,874,76.167129278183
"00:00:11.704",71,74.1954650878906,97,0,NA,875,75.9053163528442
"00:00:11.716",71,74.1417541503906,97,0,NA,876,75.6702136993408
"00:00:11.728",71,74.1148986816406,97,0,NA,877,75.4602880477905
"00:00:11.744",71,74.1148986816406,97,0,NA,877,75.2763786315918
"00:00:11.756",71,74.1368713378906,97,0,NA,878,75.114441871643
"00:00:11.768",71,74.1856994628906,97,0,NA,879,74.9800472259521
"00:00:11.784",71,74.2565078735352,97,0,NA,880,74.8691587448121
"00:00:11.796",71,74.3468399047852,97,0,NA,881,74.78000664711
"00:00:11.808",71,74.4469375610352,97,0,NA,882,74.7034430503846
"00:00:11.824",71,74.5543594360352,97,0,NA,883,74.6373317241669
"00:00:11.836",71,74.6617813110352,97,0,NA,884,74.574577331543
"00:00:11.848",71,74.7570037841797,97,0,NA,885,74.5029804706574
"00:00:11.864",71,74.8375701904297,97,0,NA,886,74.419703245163
"00:00:11.876",71,74.8912811279297,97,0,NA,887,74.3120882511139
"00:00:11.888",71,74.9156951904297,97,0,NA,888,74.1768548488617
"00:00:11.904",71,74.9156951904297,97,0,NA,888,74.0179703235626
"00:00:11.916",71,74.8986053466797,97,0,NA,889,73.8419959545136
"00:00:11.928",71,74.8888397216797,97,0,NA,890,73.6728117465973
"00:00:11.944",71,74.9449920654297,97,0,NA,891,73.5692403316498
"00:00:11.956",71,75.1696014404297,97,0,NA,892,73.6358807086945
"00:00:11.968",71,75.7067184448242,97,0,NA,893,74.0220477581024
"00:00:11.984",71,76.6930618286133,97,0,NA,894,74.8742260932923
"00:00:11.996",71,78.1896667480469,97,0,NA,895,76.26748919487
"00:00:12.008",71,80.152587890625,97,0,NA,896,78.1738374233246
"00:00:12.024",71,82.4206924438477,97,0,NA,897,80.4467103481293
"00:00:12.036",71,84.7376174926758,97,0,NA,898,82.8392820358277
"00:00:12.048",71,86.8372650146484,97,0,NA,899,85.0869801044464
"00:00:12.064",71,88.514533996582,97,0,NA,900,86.9779136180877
"00:00:12.076",71,89.6400375366211,97,0,NA,901,88.36949634552
"00:00:12.092",71,90.1893615722656,97,0,NA,902,89.2200715541839
"00:00:12.104",71,90.2186584472656,97,0,NA,903,89.5677859783172
"00:00:12.116",71,89.8231506347656,97,0,NA,904,89.4916112422943
"00:00:12.132",71,89.1200103759766,97,0,NA,905,89.0954444408417
"00:00:12.144",71,88.2337646484375,97,0,NA,906,88.4941990375519
"00:00:12.156",71,87.254753112793,97,0,NA,907,87.772492647171
"00:00:12.172",71,86.2610855102539,97,0,NA,908,87.0055360794067
"00:00:12.184",71,85.2942733764648,97,0,NA,909,86.2343828678131
"00:00:12.196",70,84.3689651489258,97,0,NA,910,85.4745206832886
"00:00:12.208",70,83.4998092651367,97,0,NA,911,84.7418949604034
"00:00:12.224",70,82.7014541625977,97,0,NA,912,84.0529088973999
"00:00:12.236",70,81.9983215332031,97,0,NA,913,83.4341967105865
"00:00:12.252",70,81.4245834350586,97,0,NA,914,82.9229061603546
"00:00:12.264",70,81.0022125244141,97,0,NA,915,82.5450534820557
"00:00:12.276",70,80.7482986450195,97,0,NA,916,82.322458744049
"00:00:12.288",70,80.6408767700195,97,0,NA,917,82.2384212017059
"00:00:12.304",70,80.6555252075195,97,0,NA,918,82.273097038269
"00:00:12.316",70,80.7482986450195,97,0,NA,919,82.386355638504
"00:00:12.332",70,80.8850250244141,97,0,NA,920,82.5464663505555
"00:00:12.344",70,81.0119781494141,97,0,NA,921,82.7010765075684
"00:00:12.356",70,81.0974273681641,97,0,NA,922,82.8181500434876
"00:00:12.368",70,81.1023101806641,97,0,NA,923,82.8573274612427
"00:00:12.384",70,81.0070953369141,97,0,NA,924,82.7965598106385
"00:00:12.396",70,80.8020172119141,97,0,NA,925,82.622953414917
"00:00:12.412",70,80.5041580200195,97,0,NA,926,82.3501572608947
"00:00:12.424",70,80.130615234375,97,0,NA,927,81.9923694133759
"00:00:12.436",70,79.7106857299805,97,0,NA,928,81.5765216350556
"00:00:12.452",70,79.2761154174805,97,0,NA,929,81.1329102516175
"00:00:12.464",70,78.8488616943359,97,0,NA,930,80.6830351352691
"00:00:12.476",70,78.4484634399414,97,0,NA,931,80.2466638088226
"00:00:12.492",70,78.0773620605469,97,0,NA,932,79.8270769119263
"00:00:12.504",70,77.7331161499023,97,0,NA,933,79.4227485656738
"00:00:12.516",70,77.4132919311523,97,0,NA,934,79.0320842266082
"00:00:12.528",70,77.1129913330078,97,0,NA,935,78.6509490013122
"00:00:12.544",70,76.8322296142578,97,0,NA,936,78.2799682617187
"00:00:12.556",70,76.5783157348633,97,0,NA,937,77.9270615577698
"00:00:12.572",70,76.3512649536133,97,0,NA,938,77.5930831432343
"00:00:12.584",70,76.1510620117188,97,0,NA,939,77.2788572311402
"00:00:12.596",70,75.9874877929688,97,0,NA,940,76.9950037002564
"00:00:12.608",70,75.8507690429688,97,0,NA,941,76.7328939437867
"00:00:12.624",70,75.7433395385742,97,0,NA,942,76.4958009719848
"00:00:12.636",70,75.6652145385742,97,0,NA,943,76.2846553325653
"00:00:12.652",70,75.6066207885742,97,0,NA,944,76.0905995368957
"00:00:12.664",70,75.5651168823242,97,0,NA,945,75.9118025302887
"00:00:12.676",70,75.5358200073242,97,0,NA,946,75.7439155578613
"00:00:12.688",70,75.5162887573242,97,0,NA,947,75.5848786830902
"00:00:12.704",70,75.5089645385742,97,0,NA,948,75.4374384880066
"00:00:12.716",70,75.5065231323242,97,0,NA,949,75.294652223587
"00:00:12.732",70,75.5040817260742,97,0,NA,950,75.1517896652222
"00:00:12.744",70,75.4943161010742,97,0,NA,951,75.001526594162
"00:00:12.756",70,75.4772262573242,97,0,NA,952,74.8436341285705
"00:00:12.768",70,75.4479293823242,97,0,NA,953,74.6730005741119
"00:00:12.784",70,75.4113082885742,97,0,NA,954,74.4941272735596
"00:00:12.796",70,75.3820114135742,97,0,NA,955,74.3214337825775
"00:00:12.812",70,75.3966598510742,97,0,NA,956,74.1917700767517
"00:00:12.824",70,75.5382614135742,97,0,NA,957,74.1895172595978
"00:00:12.836",70,75.9337768554688,97,0,NA,958,74.4456033706666
"00:00:12.848",70,76.7174758911133,97,0,NA,959,75.1022329330444
"00:00:12.864",70,77.9723815917969,97,0,NA,960,76.2545597553253
"00:00:12.876",70,79.6789474487305,97,0,NA,961,77.8977625370026
"00:00:12.888",70,81.7053451538086,97,0,NA,962,79.9141273498535
"00:00:12.904",70,83.8318481445313,97,0,NA,963,82.0939223766327
"00:00:12.916",70,85.8069763183594,97,0,NA,964,84.1887958049774
"00:00:12.928",70,87.423210144043,97,0,NA,965,85.9864976406098
"00:00:12.944",70,88.553596496582,97,0,NA,966,87.3488593101501
"00:00:12.956",70,89.1663970947266,97,0,NA,967,88.2289597988129
"00:00:12.968",70,89.3006820678711,97,0,NA,968,88.6496946811676
"00:00:12.984",70,89.0345611572266,97,0,NA,969,88.6742200851441
"00:00:12.996",70,88.468147277832,97,0,NA,970,88.3901362419128
"00:00:13.008",70,87.716178894043,97,0,NA,971,87.9027974605561
"00:00:13.024",70,86.8690032958984,97,0,NA,972,87.2967524528503
"00:00:13.036",70,85.9974060058594,97,0,NA,973,86.6398115158081
"00:00:13.048",70,85.1404571533203,97,0,NA,974,85.9702816009521
"00:00:13.064",70,84.3152542114258,97,0,NA,975,85.3057179450989
"00:00:13.076",70,83.5144577026367,97,0,NA,976,84.6397731304169
"00:00:13.092",70,82.7453994750977,97,0,NA,977,83.9805417060852
"00:00:13.104",70,82.0202941894531,97,0,NA,978,83.3412301540374
"00:00:13.116",70,81.3708724975586,97,0,NA,979,82.7549426555634
"00:00:13.132",70,80.8337554931641,97,0,NA,980,82.2606654167176
"00:00:13.144",70,80.4333572387695,97,0,NA,981,81.8863220214843
"00:00:13.156",70,80.184326171875,97,0,NA,982,81.6508333683014
"00:00:13.172",70,80.069580078125,97,0,NA,983,81.5418474674225
"00:00:13.184",70,80.059814453125,97,0,NA,984,81.5342562198639
"00:00:13.196",69,80.120849609375,97,0,NA,985,81.597160577774
"00:00:13.208",69,80.203857421875,97,0,NA,986,81.683944940567
"00:00:13.224",69,80.2673416137695,97,0,NA,987,81.7537996768951
"00:00:13.236",69,80.2795486450195,97,0,NA,988,81.7743611335754
"00:00:13.248",69,80.218505859375,97,0,NA,989,81.7220542430878
"00:00:13.264",69,80.084228515625,97,0,NA,990,81.5946052074432
"00:00:13.276",69,79.866943359375,97,0,NA,991,81.3799521923065
"00:00:13.288",69,79.5812911987305,97,0,NA,992,81.0901420116425
"00:00:13.304",69,79.2370452880859,97,0,NA,993,80.7328114509582
"00:00:13.316",69,78.8415374755859,97,0,NA,994,80.3134613037109
"00:00:13.328",69,78.4216079711914,97,0,NA,995,79.8573298454285
"00:00:13.344",69,77.9943542480469,97,0,NA,996,79.3807513713837
"00:00:13.356",69,77.5866317749023,97,0,NA,997,78.9103524684906
"00:00:13.368",69,77.2106475830078,97,0,NA,998,78.4589505195618
"00:00:13.384",69,76.8810577392578,97,0,NA,999,78.0421934127807
"00:00:13.396",69,76.5978469848633,97,0,NA,1000,77.6615157127381
"00:00:13.408",69,76.3634719848633,97,0,NA,1001,77.320823431015
"00:00:13.424",69,76.1803588867188,97,0,NA,1002,77.0240688323975
"00:00:13.436",69,76.0411987304688,97,0,NA,1003,76.7655448913575
"00:00:13.452",69,75.9288940429688,97,0,NA,1004,76.5295276641846
"00:00:13.464",69,75.8263549804688,97,0,NA,1005,76.2997665405274
"00:00:13.476",69,75.7189254760742,97,0,NA,1006,76.0619106292724
"00:00:13.488",69,75.5992965698242,97,0,NA,1007,75.8084981441498
"00:00:13.504",69,75.4723434448242,97,0,NA,1008,75.5440230369568
"00:00:13.516",69,75.3575973510742,97,0,NA,1009,75.2877876758575
"00:00:13.528",69,75.2672653198242,97,0,NA,1010,75.0523805618286
"00:00:13.544",69,75.2184295654297,97,0,NA,1011,74.8556468486786
"00:00:13.556",69,75.2062225341797,97,0,NA,1012,74.6940157413483
"00:00:13.568",69,75.2281951904297,97,0,NA,1013,74.5661828517914
"00:00:13.584",69,75.2721481323242,97,0,NA,1014,74.4610168933868
"00:00:13.596",69,75.3258590698242,97,0,NA,1015,74.366982460022
"00:00:13.608",69,75.3722457885742,97,0,NA,1016,74.267302274704
"00:00:13.624",69,75.3991012573242,97,0,NA,1017,74.1495404243469
"00:00:13.636",69,75.4064254760742,97,0,NA,1018,74.0130865573883
"00:00:13.648",69,75.4015426635742,97,0,NA,1019,73.8646545410156
"00:00:13.664",69,75.4235153198242,97,0,NA,1020,73.7429254055023
"00:00:13.676",69,75.5455856323242,97,0,NA,1021,73.7219805717468
"00:00:13.688",69,75.8873901367188,97,0,NA,1022,73.9245846271515
"00:00:13.704",69,76.5709915161133,97,0,NA,1023,74.4796669483185
"00:00:13.716",69,77.6769638061523,97,0,NA,1024,75.478482723236
"00:00:13.728",69,79.1882171630859,97,0,NA,1025,76.9171411991119
"00:00:13.744",69,80.9997711181641,97,0,NA,1026,78.7033269405365
"00:00:13.756",69,82.9040985107422,97,0,NA,1027,80.6388971805573
"00:00:13.768",69,84.6741409301758,97,0,NA,1028,82.4996926784516
"00:00:13.784",69,86.1023864746094,97,0,NA,1029,84.0740051269532
"00:00:13.796",69,87.0789642333984,97,0,NA,1030,85.2412824630737
"00:00:13.808",69,87.572135925293,97,0,NA,1031,85.955671787262
"00:00:13.824",69,87.638053894043,97,0,NA,1032,86.2582190036774
"00:00:13.836",69,87.367057800293,97,0,NA,1033,86.2259120941162
"00:00:13.848",69,86.8690032958984,97,0,NA,1034,85.9580781459808
"00:00:13.864",69,86.2488708496094,97,0,NA,1035,85.5526020526886
"00:00:13.876",69,85.5823593139648,97,0,NA,1036,85.0813677310943
"00:00:13.888",69,84.9085235595703,97,0,NA,1037,84.5819807052612
"00:00:13.904",69,84.2371215820313,97,0,NA,1038,84.0639700889588
"00:00:13.916",69,83.5632858276367,97,0,NA,1039,83.5225443840027
"00:00:13.928",69,82.8748016357422,97,0,NA,1040,82.9454128742218
"00:00:13.944",69,82.1741027832031,97,0,NA,1041,82.3345515727997
"00:00:13.956",69,81.4782943725586,97,0,NA,1042,81.7066838741302
"00:00:13.968",69,80.8093414306641,97,0,NA,1043,81.0839276313782
"00:00:13.984",69,80.208740234375,97,0,NA,1044,80.5086183547974
"00:00:13.996",69,79.7228927612305,97,0,NA,1045,80.0292940139771
"00:00:14.008",69,79.3737716674805,97,0,NA,1046,79.6715133190155
"00:00:14.024",69,79.1735687255859,97,0,NA,1047,79.4517407417297
"00:00:14.036",69,79.1100921630859,97,0,NA,1048,79.3624382019043
"00:00:14.048",69,79.1491546630859,97,0,NA,1049,79.3736910820007
"00:00:14.064",69,79.2492523193359,97,0,NA,1050,79.4471998214721
"00:00:14.076",69,79.3591232299805,97,0,NA,1051,79.533609867096
"00:00:14.092",69,79.4348068237305,97,0,NA,1052,79.5892660617829
"00:00:14.104",69,79.4470138549805,97,0,NA,1053,79.5838108062744
"00:00:14.116",69,79.3810958862305,97,0,NA,1054,79.5006120204926
"00:00:14.132",69,79.2346038818359,97,0,NA,1055,79.3347792625427
"00:00:14.144",69,79.0148773193359,97,0,NA,1056,79.0911340713501
"00:00:14.156",69,78.7267837524414,97,0,NA,1057,78.7722554206848
"00:00:14.172",69,78.3923110961914,97,0,NA,1058,78.3979947566986
"00:00:14.184",69,78.0163269042969,97,0,NA,1059,77.9717702865601
"00:00:14.196",69,77.6208114624023,97,0,NA,1060,77.5142650604248
"00:00:14.208",69,77.2228546142578,97,0,NA,1061,77.0419585704803
"00:00:14.224",69,76.8493194580078,97,0,NA,1062,76.5816376209259
"00:00:14.236",69,76.5123977661133,97,0,NA,1063,76.1462571620941
"00:00:14.252",69,76.2194213867188,97,0,NA,1064,75.7442932128907
"00:00:14.264",69,75.9728393554688,97,0,NA,1065,75.3795680999756
"00:00:14.276",69,75.7702026367188,97,0,NA,1066,75.051082611084
"00:00:14.288",69,75.6066207885742,97,0,NA,1067,74.7553195953369
"00:00:14.304",69,75.4796676635742,97,0,NA,1068,74.4910733699798
"00:00:14.316",69,75.3917770385742,97,0,NA,1069,74.2619223594665
"00:00:14.332",69,75.3307418823242,97,0,NA,1070,74.056880235672
"00:00:14.344",69,75.2965621948242,97,0,NA,1071,73.8767862319946
"00:00:14.356",69,75.2843551635742,97,0,NA,1072,73.7175967693329
"00:00:14.368",69,75.2867965698242,97,0,NA,1073,73.5726742744446
"00:00:14.384",69,75.3063278198242,97,0,NA,1074,73.4449179172516
"00:00:14.396",69,75.3429489135742,97,0,NA,1075,73.3348617553711
"00:00:14.412",69,75.3942184448242,97,0,NA,1076,73.2405984401703
"00:00:14.424",69,75.4552536010742,97,0,NA,1077,73.157702922821
"00:00:14.436",69,75.5236129760742,97,0,NA,1078,73.0840389728546
"00:00:14.452",69,75.5944137573242,97,0,NA,1079,73.0149526596069
"00:00:14.464",69,75.6603317260742,97,0,NA,1080,72.9431960582733
"00:00:14.476",69,75.7213668823242,97,0,NA,1081,72.8686165809631
"00:00:14.492",69,75.7726440429688,97,0,NA,1082,72.7861864566804
"00:00:14.504",69,75.8165893554688,97,0,NA,1083,72.6980268955231
"00:00:14.516",69,75.8605346679688,97,0,NA,1084,72.6112406253815
"00:00:14.528",69,75.9288940429688,97,0,NA,1085,72.5502417087556
"00:00:14.544",69,76.1046752929688,97,0,NA,1086,72.5988008975983
"00:00:14.556",69,76.5221633911133,97,0,NA,1087,72.8945600986481
"00:00:14.572",69,77.3180770874023,97,0,NA,1088,73.5817914009094
"00:00:14.584",69,78.5754165649414,97,0,NA,1089,74.7553207874298
"00:00:14.596",69,80.2575759887695,97,0,NA,1090,76.3929619789123
"00:00:14.608",69,82.2107238769531,97,0,NA,1091,78.354159116745
"00:00:14.624",69,84.1882934570313,97,0,NA,1092,80.400813817978
"00:00:14.636",69,85.9388122558594,97,0,NA,1093,82.2822167873383
"00:00:14.652",69,87.269401550293,97,0,NA,1094,83.7983939647675
"00:00:14.664",69,88.0921630859375,97,0,NA,1095,84.8483242988586
"00:00:14.676",69,88.419319152832,97,0,NA,1096,85.4283604621887
"00:00:14.688",69,88.331428527832,97,0,NA,1097,85.6035735607147
"00:00:14.704",69,87.9359130859375,97,0,NA,1098,85.4684152603149
"00:00:14.716",69,87.337760925293,97,0,NA,1099,85.118260383606
"00:00:14.732",69,86.6443862915039,97,0,NA,1100,84.6541907787323
"00:00:14.744",69,85.9314880371094,97,0,NA,1101,84.1489295959473
"00:00:14.756",69,85.2405548095703,97,0,NA,1102,83.6433553695679
"00:00:14.768",69,84.5813674926758,97,0,NA,1103,83.1479353904724
"00:00:14.784",69,83.9539184570313,97,0,NA,1104,82.6636540889741
"00:00:14.796",69,83.3460006713867,97,0,NA,1105,82.1792962551117
"00:00:14.812",69,82.7649383544922,97,0,NA,1106,81.702796459198
"00:00:14.824",69,82.2229309082031,97,0,NA,1107,81.2471933364868
"00:00:14.836",69,81.7492904663086,97,0,NA,1108,80.8430194854736
"00:00:14.848",69,81.3733139038086,97,0,NA,1109,80.5217082500458
"00:00:14.864",69,81.1169586181641,97,0,NA,1110,80.3082690238953
"00:00:14.876",69,80.9826812744141,97,0,NA,1111,80.2088966369629
"00:00:14.888",69,80.9582672119141,97,0,NA,1112,80.2151913642884
"00:00:14.904",69,81.0144195556641,97,0,NA,1113,80.3012895584107
"00:00:14.916",69,81.1096343994141,97,0,NA,1114,80.4282050132752
"00:00:14.928",69,81.2048492431641,97,0,NA,1115,80.5580959320069
"00:00:14.944",69,81.2634506225586,97,0,NA,1116,80.6543488502502
"00:00:14.96",69,81.2634506225586,97,0,NA,1116,80.6938316822052
"00:00:14.968",69,81.1975250244141,97,0,NA,1117,80.6673889160157
"00:00:14.984",69,81.0705718994141,97,0,NA,1118,80.5778584480286
"00:00:14.996",69,80.8850250244141,97,0,NA,1119,80.4257669448853
"00:00:15.008",69,80.6628494262695,97,0,NA,1120,80.2312483787536
"00:00:15.024",69,80.4138259887695,97,0,NA,1121,80.0029389858246
"00:00:15.036",69,80.145263671875,97,0,NA,1122,79.7473087310791
"00:00:15.048",69,79.857177734375,97,0,NA,1123,79.4637622833252
"00:00:15.064",69,79.5617599487305,97,0,NA,1124,79.1638813018799
"00:00:15.076",69,79.2639083862305,97,0,NA,1125,78.8523347377777
"00:00:15.092",69,78.9709320068359,97,0,NA,1126,78.5363554954528
"00:00:15.104",69,78.6974868774414,97,0,NA,1127,78.230751991272
"00:00:15.116",69,78.4533462524414,97,0,NA,1128,77.945907831192
"00:00:15.132",69,78.2409362792969,97,0,NA,1129,77.6851649284363
"00:00:15.144",69,78.0578308105469,97,0,NA,1130,77.4470887184143
"00:00:15.156",69,77.8991394042969,97,0,NA,1131,77.2277045249939
"00:00:15.172",69,77.7550964355469,97,0,NA,1132,77.0180096626282
"00:00:15.184",69,77.6281356811523,97,0,NA,1133,76.8208956718444
"00:00:15.196",69,77.5182723999023,97,0,NA,1134,76.6369116306305
"00:00:15.208",69,77.4279403686523,97,0,NA,1135,76.4690256118774
"00:00:15.224",69,77.3571395874023,97,0,NA,1136,76.3178479671478
"00:00:15.236",69,77.3156356811523,97,0,NA,1137,76.1937546730041
"00:00:15.248",69,77.3034286499023,97,0,NA,1138,76.0976612567901
"00:00:15.264",69,77.3131942749023,97,0,NA,1139,76.0231590270996
"00:00:15.276",69,77.3424911499023,97,0,NA,1140,75.9684932231903
"00:00:15.288",69,77.3815536499023,97,0,NA,1141,75.9245085716247
"00:00:15.304",69,77.4181747436523,97,0,NA,1142,75.8793032169342
"00:00:15.316",69,77.4352645874023,97,0,NA,1143,75.8157110214233
"00:00:15.328",69,77.4157333374023,97,0,NA,1144,75.7160317897796
"00:00:15.344",69,77.3522567749023,97,0,NA,1145,75.5717968940734
"00:00:15.356",69,77.2399444580078,97,0,NA,1146,75.3767426013946
"00:00:15.368",69,77.0836944580078,97,0,NA,1147,75.1342408657074
"00:00:15.384",69,76.9152374267578,97,0,NA,1148,74.8746492862701
"00:00:15.396",69,76.7882843017578,97,0,NA,1149,74.6512973308563
"00:00:15.408",69,76.8053741455078,97,0,NA,1150,74.5680210590362
"00:00:15.424",69,77.0885772705078,97,0,NA,1151,74.7513921260834
"00:00:15.436",69,77.7453231811523,97,0,NA,1152,75.3171560764312
"00:00:15.452",69,78.8097991943359,97,0,NA,1153,76.3111734390258
"00:00:15.464",69,80.218505859375,97,0,NA,1154,77.6826863288879
"00:00:15.476",69,81.8030090332031,97,0,NA,1155,79.2740178108215
"00:00:15.488",69,83.3557662963867,97,0,NA,1156,80.8831191062927
"00:00:15.504",69,84.6643753051758,97,0,NA,1157,82.2965958118439
"00:00:15.516",69,85.5945663452148,97,0,NA,1158,83.3725485801696
"00:00:15.528",69,86.0975036621094,97,0,NA,1159,84.0503160953522
"00:00:15.544",69,86.2024841308594,97,0,NA,1160,84.3458435535431
"00:00:15.556",69,85.9754333496094,97,0,NA,1161,84.3126204013825
"00:00:15.568",69,85.5042343139648,97,0,NA,1162,84.0281536579132
"00:00:15.584",69,84.8743438720703,97,0,NA,1163,83.5702705383301
"00:00:15.596",69,84.1541137695313,97,0,NA,1164,83.0023636817933
"00:00:15.608",69,83.3923873901367,97,0,NA,1165,82.3704533576965
"00:00:15.624",69,82.6233291625977,97,0,NA,1166,81.7074072360993
"00:00:15.636",69,81.8640441894531,97,0,NA,1167,81.0301012992859
"00:00:15.652",69,81.1486968994141,97,0,NA,1168,80.3730053901673
"00:00:15.664",69,80.5041580200195,97,0,NA,1169,79.7643632888794
"00:00:15.676",69,79.969482421875,97,0,NA,1170,79.2454426288605
"00:00:15.688",69,79.5910568237305,97,0,NA,1171,78.8660633563996
"00:00:15.704",69,79.3908615112305,97,0,NA,1172,78.6530885696411
"00:00:15.716",69,79.3713302612305,97,0,NA,1173,78.6145217418671
"00:00:15.728",69,79.5080490112305,97,0,NA,1174,78.7315945625305
"00:00:15.744",69,79.752197265625,97,0,NA,1175,78.960369348526
"00:00:15.756",69,80.047607421875,97,0,NA,1176,79.2480356693268
"00:00:15.768",69,80.3405838012695,97,0,NA,1177,79.5424997806549
"00:00:15.784",69,80.5847244262695,97,0,NA,1178,79.7972836494446
"00:00:15.796",69,80.7605133056641,97,0,NA,1179,79.9913451671601
"00:00:15.808",69,80.8557281494141,97,0,NA,1180,80.1103260517121
"00:00:15.824",69,80.8825836181641,97,0,NA,1181,80.1639230251313
"00:00:15.836",69,80.8459625244141,97,0,NA,1182,80.1548826694489
"00:00:15.848",69,80.7556304931641,97,0,NA,1183,80.0909869670868
"00:00:15.864",69,80.6213455200195,97,0,NA,1184,79.9803154468536
"00:00:15.876",69,80.4528884887695,97,0,NA,1185,79.8312754631042
"00:00:15.888",69,80.2600173950195,97,0,NA,1186,79.6525571346283
"00:00:15.904",69,80.045166015625,97,0,NA,1187,79.4458312988281
"00:00:15.916",69,79.820556640625,97,0,NA,1188,79.2226333618164
"00:00:15.928",69,79.5886154174805,97,0,NA,1189,78.9850845336914
"00:00:15.944",69,79.3640060424805,97,0,NA,1190,78.7476193904877
"00:00:15.956",69,79.1564788818359,97,0,NA,1191,78.5202174186706
"00:00:15.968",69,78.9733734130859,97,0,NA,1192,78.310751914978
"00:00:15.984",69,78.8195648193359,97,0,NA,1193,78.1248612403869
"00:00:15.996",69,78.6926040649414,97,0,NA,1194,77.9610118865967
"00:00:16.008",69,78.5925064086914,97,0,NA,1195,77.8200581073761
"00:00:16.024",69,78.5070571899414,97,0,NA,1196,77.6906247138977
"00:00:16.036",69,78.4386978149414,97,0,NA,1197,77.5756108760834
"00:00:16.048",69,78.3825454711914,97,0,NA,1198,77.4706678390503
"00:00:16.064",69,78.3459243774414,97,0,NA,1199,77.383501291275
"00:00:16.076",69,78.3239517211914,97,0,NA,1200,77.3098387718201
"00:00:16.092",69,78.3263931274414,97,0,NA,1201,77.2599036693573
"00:00:16.104",69,78.3434829711914,97,0,NA,1202,77.2246932983398
"00:00:16.116",69,78.3776626586914,97,0,NA,1203,77.2071068286896
"00:00:16.132",69,78.4167251586914,97,0,NA,1204,77.1954712867737
"00:00:16.144",69,78.4509048461914,97,0,NA,1205,77.1801736354828
"00:00:16.156",69,78.4777603149414,97,0,NA,1206,77.1586198806763
"00:00:16.172",69,78.5046157836914,97,0,NA,1207,77.1379053592682
"00:00:16.184",69,78.5729751586914,97,0,NA,1208,77.1595339775085
"00:00:16.196",69,78.7609710693359,97,0,NA,1209,77.3029353618621
"00:00:16.208",69,79.1882171630859,97,0,NA,1210,77.6914618015289
"00:00:16.224",69,79.945068359375,97,0,NA,1211,78.4229447841644
"00:00:16.236",69,81.0656890869141,97,0,NA,1212,79.541848897934
"00:00:16.252",69,82.4890518188477,97,0,NA,1213,80.9985144138337
"00:00:16.264",69,84.0759887695313,97,0,NA,1214,82.6632342338563
"00:00:16.276",69,85.6263046264648,97,0,NA,1215,84.3409247398376
"00:00:16.288",69,86.9544525146484,97,0,NA,1216,85.8448946475982
"00:00:16.304",69,87.9334716796875,97,0,NA,1217,87.0412404537201
"00:00:16.316",69,88.512092590332,97,0,NA,1218,87.8677823543548
"00:00:16.332",69,88.692756652832,97,0,NA,1219,88.3144493103027
"00:00:16.344",69,88.529182434082,97,0,NA,1220,88.4225237369537
"00:00:16.356",69,88.0946044921875,97,0,NA,1221,88.2544827461243
"00:00:16.368",69,87.469596862793,97,0,NA,1222,87.8824315071106
"00:00:16.384",69,86.7298355102539,97,0,NA,1223,87.3760950565338
"00:00:16.396",69,85.9510192871094,97,0,NA,1224,86.8075861930847
"00:00:16.412",69,85.1819610595703,97,0,NA,1225,86.2244973182678
"00:00:16.424",69,84.4470901489258,97,0,NA,1226,85.6515626907349
"00:00:16.436",69,83.7634887695313,97,0,NA,1227,85.1069328784943
"00:00:16.452",69,83.1384735107422,97,0,NA,1228,84.5995266437531
"00:00:16.464",69,82.5769424438477,97,0,NA,1229,84.1360728740693
"00:00:16.476",69,82.0886535644531,97,0,NA,1230,83.7283134460449
"00:00:16.492",69,81.6955795288086,97,0,NA,1231,83.4005098342896
"00:00:16.504",69,81.4123764038086,97,0,NA,1232,83.1702935695648
"00:00:16.516",69,81.2439117431641,97,0,NA,1233,83.0459656715393
"00:00:16.528",69,81.1828765869141,97,0,NA,1234,83.0238027572632
"00:00:16.544",69,81.2048492431641,97,0,NA,1235,83.0827403068543
"00:00:16.556",69,81.2780990600586,97,0,NA,1236,83.1936416625977
"00:00:16.572",69,81.3659896850586,97,0,NA,1237,83.3214728832245
"00:00:16.584",69,81.4270248413086,97,0,NA,1238,83.4251952171326
"00:00:16.596",69,81.4319076538086,97,0,NA,1239,83.4746725559235
"00:00:16.608",69,81.3659896850586,97,0,NA,1240,83.453501701355
"00:00:16.624",69,81.2243804931641,97,0,NA,1241,83.3545796871186
"00:00:16.636",69,81.0119781494141,97,0,NA,1242,83.1804392337799
"00:00:16.652",69,80.7360916137695,97,0,NA,1243,82.9361770153045
"00:00:16.664",69,80.4138259887695,97,0,NA,1244,82.6369142532348
"00:00:16.676",69,80.057373046875,97,0,NA,1245,82.2933933734894
"00:00:16.688",69,79.6789474487305,97,0,NA,1246,81.9167606830597
"00:00:16.704",69,79.2956466674805,97,0,NA,1247,81.5234270095825
"00:00:16.716",69,78.9221038818359,97,0,NA,1248,81.1278731822967
"00:00:16.732",69,78.5632095336914,97,0,NA,1249,80.7352945804596
"00:00:16.744",69,78.2214050292969,97,0,NA,1250,80.3485903739929
"00:00:16.756",69,77.9089050292969,97,0,NA,1251,79.9805092811585
"00:00:16.768",69,77.6256942749023,97,0,NA,1252,79.6319518089294
"00:00:16.784",69,77.3742294311523,97,0,NA,1253,79.3062899112701
"00:00:16.796",69,77.1642608642578,97,0,NA,1254,79.0142660140991
"00:00:16.812",69,76.9933624267578,97,0,NA,1255,78.7547507286072
"00:00:16.824",69,76.8590850830078,97,0,NA,1256,78.5265159606933
"00:00:16.836",69,76.7492141723633,97,0,NA,1257,78.3184914588928
"00:00:16.848",69,76.6588821411133,97,0,NA,1258,78.1265723705292
"00:00:16.864",69,76.5856399536133,97,0,NA,1259,77.948920249939
"00:00:16.876",69,76.5221633911133,97,0,NA,1260,77.7787449359894
"00:00:16.888",69,76.4660110473633,97,0,NA,1261,77.6139101982117
"00:00:16.904",69,76.4245071411133,97,0,NA,1262,77.4619691371918
"00:00:16.916",69,76.3878860473633,97,0,NA,1263,77.3136138916016
"00:00:16.928",69,76.3585891723633,97,0,NA,1264,77.1714384555817
"00:00:16.944",69,76.3317337036133,97,0,NA,1265,77.030788898468
"00:00:16.956",69,76.3146438598633,97,0,NA,1266,76.8990657329559
"00:00:16.968",69,76.3414993286133,97,0,NA,1267,76.8107538223267
"00:00:16.984",69,76.4879837036133,97,0,NA,1268,76.8429100513458
"00:00:16.996",69,76.8688507080078,97,0,NA,1269,77.1140265464783
"00:00:17.008",69,77.5963973999023,97,0,NA,1270,77.743724822998
"00:00:17.024",69,78.7267837524414,97,0,NA,1271,78.7989985942841
"00:00:17.036",69,80.220947265625,97,0,NA,1272,80.2533740997314
"00:00:17.048",69,81.9519348144531,97,0,NA,1273,81.9912662506103
"00:00:17.064",69,83.7219772338867,97,0,NA,1274,83.8223066329956
"00:00:17.076",69,85.3162460327148,97,0,NA,1275,85.5328872203826
"00:00:17.092",69,86.5687026977539,97,0,NA,1276,86.9514765739441
"00:00:17.104",69,87.396354675293,97,0,NA,1277,87.984400510788
"00:00:17.116",69,87.7894287109375,97,0,NA,1278,88.6086106300354
"00:00:17.132",69,87.7967529296875,97,0,NA,1279,88.8593544960022
"00:00:17.144",69,87.496452331543,97,0,NA,1280,88.8027024269104
"00:00:17.156",69,86.9837493896484,97,0,NA,1281,88.5242636203765
"00:00:17.172",69,86.3489761352539,97,0,NA,1282,88.1077325344086
"00:00:17.184",69,85.6580429077148,97,0,NA,1283,87.6152048110961
"00:00:17.196",70,84.9622344970703,97,0,NA,1284,87.0962102413177
"00:00:17.208",70,84.2932815551758,97,0,NA,1285,86.5823271274567
"00:00:17.224",70,83.6560592651367,97,0,NA,1286,86.0792698860168
"00:00:17.236",70,83.0530242919922,97,0,NA,1287,85.5904867649079
"00:00:17.252",70,82.4963760375977,97,0,NA,1288,85.1292455196381
"00:00:17.264",70,81.9958801269531,97,0,NA,1289,84.7067613601684
"00:00:17.276",70,81.5735092163086,97,0,NA,1290,84.3467617034912
"00:00:17.288",70,81.2414703369141,97,0,NA,1291,84.0638949871064
"00:00:17.304",70,81.0193023681641,97,0,NA,1292,83.8805229663849
"00:00:17.316",70,80.9045562744141,97,0,NA,1293,83.7976300716401
"00:00:17.328",70,80.8752593994141,97,0,NA,1294,83.7966005802155
"00:00:17.344",70,80.9021148681641,97,0,NA,1295,83.8508079051972
"00:00:17.356",70,80.9558258056641,97,0,NA,1296,83.9327099323273
"00:00:17.368",70,81.0046539306641,97,0,NA,1297,84.0114076137543
"00:00:17.384",70,81.0217437744141,97,0,NA,1298,84.0598928928376
"00:00:17.396",70,80.9875640869141,97,0,NA,1299,84.057642698288
"00:00:17.408",70,80.8850250244141,97,0,NA,1300,83.9859650135041
"00:00:17.424",70,80.7116775512695,97,0,NA,1301,83.8402745723724
"00:00:17.436",70,80.4797439575195,97,0,NA,1302,83.6305809020996
"00:00:17.452",70,80.196533203125,97,0,NA,1303,83.3623621463776
"00:00:17.464",70,79.879150390625,97,0,NA,1304,83.0511209964752
"00:00:17.476",70,79.5422286987305,97,0,NA,1305,82.7104227542877
"00:00:17.488",70,79.2004241943359,97,0,NA,1306,82.3543128967285
"00:00:17.504",70,78.8586273193359,97,0,NA,1307,81.9875292778015
"00:00:17.516",70,78.5265884399414,97,0,NA,1308,81.6198225021362
"00:00:17.528",70,78.2140808105469,97,0,NA,1309,81.2612707614899
"00:00:17.544",70,77.9333190917969,97,0,NA,1310,80.9246990680695
"00:00:17.556",70,77.6891708374023,97,0,NA,1311,80.6159670352935
"00:00:17.568",70,77.4767684936523,97,0,NA,1312,80.3313512802124
"00:00:17.584",70,77.2936630249023,97,0,NA,1313,80.069394826889
"00:00:17.596",70,77.1398468017578,97,0,NA,1314,79.8310055732727
"00:00:17.608",70,77.0031280517578,97,0,NA,1315,79.6049070358276
"00:00:17.624",70,76.8786163330078,97,0,NA,1316,79.3867430686951
"00:00:17.636",70,76.7711944580078,97,0,NA,1317,79.1817779541015
"00:00:17.648",70,76.6857376098633,97,0,NA,1318,78.9954209327698
"00:00:17.664",70,76.6198196411133,97,0,NA,1319,78.825932264328
"00:00:17.676",70,76.5709915161133,97,0,NA,1320,78.6714735031128
"00:00:17.688",70,76.5392532348633,97,0,NA,1321,78.5325787067413
"00:00:17.704",70,76.5148391723633,97,0,NA,1322,78.4000163078308
"00:00:17.716",70,76.4953079223633,97,0,NA,1323,78.2715737819672
"00:00:17.728",70,76.4782180786133,97,0,NA,1324,78.144962310791
"00:00:17.744",70,76.4611282348633,97,0,NA,1325,78.0178167819977
"00:00:17.756",70,76.4342727661133,97,0,NA,1326,77.8803715705872
"00:00:17.768",70,76.4098587036133,97,0,NA,1327,77.7445285320282
"00:00:17.784",70,76.4147415161133,97,0,NA,1328,77.6372194290161
"00:00:17.796",70,76.5099563598633,97,0,NA,1329,77.6203949451447
"00:00:17.808",70,76.8004913330078,97,0,NA,1330,77.8018660545349
"00:00:17.824",70,77.4157333374023,97,0,NA,1331,78.3171234130859
"00:00:17.836",70,78.4313735961914,97,0,NA,1332,79.2520053386688
"00:00:17.848",70,79.837646484375,97,0,NA,1333,80.6092586517334
"00:00:17.864",70,81.5320053100586,97,0,NA,1334,82.2985439300537
"00:00:17.876",70,83.3313522338867,97,0,NA,1335,84.1457660198212
"00:00:17.888",70,85.0012969970703,97,0,NA,1336,85.9198155403137
"00:00:17.904",70,86.3465347290039,97,0,NA,1337,87.4213438034058
"00:00:17.916",70,87.2449798583984,97,0,NA,1338,88.5181181430816
"00:00:17.928",70,87.662467956543,97,0,NA,1339,89.1620118618012
"00:00:17.944",70,87.638053894043,97,0,NA,1340,89.3770499229431
"00:00:17.956",70,87.266960144043,97,0,NA,1341,89.244645357132
"00:00:17.968",70,86.6590347290039,97,0,NA,1342,88.8638124465942
"00:00:17.984",70,85.9217224121094,97,0,NA,1343,88.3345949649811
"00:00:17.996",70,85.1453399658203,97,0,NA,1344,87.7432663440704
"00:00:18.008",70,84.3884963989258,97,0,NA,1345,87.1472146511078
"00:00:18.024",70,83.6829147338867,97,0,NA,1346,86.5787734985351
"00:00:18.036",70,83.0334930419922,97,0,NA,1347,86.0444428920746
"00:00:18.048",70,82.4353408813477,97,0,NA,1348,85.5410873889924
"00:00:18.064",70,81.8762512207031,97,0,NA,1349,85.0581021308899
"00:00:18.076",70,81.3611068725586,97,0,NA,1350,84.6015906333923
"00:00:18.092",70,80.9094390869141,97,0,NA,1351,84.1924574375153
"00:00:18.104",70,80.5481033325195,97,0,NA,1352,83.8595416545868
"00:00:18.116",70,80.3015213012695,97,0,NA,1353,83.630087852478
"00:00:18.132",70,80.169677734375,97,0,NA,1354,83.5076668262482
"00:00:18.144",70,80.133056640625,97,0,NA,1355,83.4763481616974
"00:00:18.156",70,80.150146484375,97,0,NA,1356,83.4975960254669
"00:00:18.172",70,80.189208984375,97,0,NA,1357,83.5413506031036
"00:00:18.184",70,80.216064453125,97,0,NA,1358,83.5741188526154
"00:00:18.196",71,80.213623046875,97,0,NA,1359,83.5784294605255
"00:00:18.208",71,80.167236328125,97,0,NA,1360,83.5387184619904
"00:00:18.224",71,80.067138671875,97,0,NA,1361,83.4438469409943
"00:00:18.236",71,79.898681640625,97,0,NA,1362,83.2774879932404
"00:00:18.252",71,79.6691818237305,97,0,NA,1363,83.0448219776154
"00:00:18.264",71,79.3835372924805,97,0,NA,1364,82.748839378357
"00:00:18.276",71,79.0612640380859,97,0,NA,1365,82.4073016643524
"00:00:18.288",71,78.7243423461914,97,0,NA,1366,82.0410444736481
"00:00:18.304",71,78.3996353149414,97,0,NA,1367,81.6764731407166
"00:00:18.316",71,78.0993347167969,97,0,NA,1368,81.326161146164
"00:00:18.332",71,77.8185729980469,97,0,NA,1369,80.9860036373139
"00:00:18.344",71,77.5646591186523,97,0,NA,1370,80.6639201641082
"00:00:18.356",71,77.3449325561523,97,0,NA,1371,80.3680891990661
"00:00:18.368",71,77.1544952392578,97,0,NA,1372,80.0946810245514
"00:00:18.384",71,76.9835968017578,97,0,NA,1373,79.8348605632782
"00:00:18.396",71,76.8273468017578,97,0,NA,1374,79.5843479633331
"00:00:18.412",71,76.6881790161133,97,0,NA,1375,79.3460347652435
"00:00:18.424",71,76.5612258911133,97,0,NA,1376,79.1155872344971
"00:00:18.436",71,76.4611282348633,97,0,NA,1377,78.9080278873444
"00:00:18.452",71,76.4049758911133,97,0,NA,1378,78.7412858009339
"00:00:18.464",71,76.4025344848633,97,0,NA,1379,78.6264998912811
"00:00:18.476",71,76.4342727661133,97,0,NA,1380,78.5458173751831
"00:00:18.492",71,76.4806594848633,97,0,NA,1381,78.4807751178742
"00:00:18.504",71,76.5270462036133,97,0,NA,1382,78.4171824455261
"00:00:18.516",71,76.5636672973633,97,0,NA,1383,78.3452737331391
"00:00:18.528",71,76.5905227661133,97,0,NA,1384,78.2647438049317
"00:00:18.544",71,76.6100540161133,97,0,NA,1385,78.1777288913727
"00:00:18.556",71,76.6198196411133,97,0,NA,1386,78.0815587043762
"00:00:18.572",71,76.6222610473633,97,0,NA,1387,77.978369474411
"00:00:18.584",71,76.6100540161133,97,0,NA,1388,77.8606081008911
"00:00:18.596",71,76.5929641723633,97,0,NA,1389,77.7375824451447
"00:00:18.612",71,76.5929641723633,97,0,NA,1389,77.631112575531
"00:00:18.624",71,76.6320266723633,97,0,NA,1390,77.5637052059174
"00:00:18.636",71,76.7541046142578,97,0,NA,1391,77.5805339813232
"00:00:18.652",71,77.0421905517578,97,0,NA,1392,77.7671856880188
"00:00:18.664",71,77.6061630249023,97,0,NA,1393,78.2387266159057
"00:00:18.676",71,78.5192642211914,97,0,NA,1394,79.077020406723
"00:00:18.688",71,79.791259765625,97,0,NA,1395,80.3027429580688
"00:00:18.704",71,81.3391342163086,97,0,NA,1396,81.8440942764282
"00:00:18.716",71,82.9871063232422,97,0,NA,1397,83.5339143276215
"00:00:18.732",71,84.5032424926758,97,0,NA,1398,85.1433975696564
"00:00:18.744",71,85.6897811889648,97,0,NA,1399,86.4706625938415
"00:00:18.756",71,86.4295425415039,97,0,NA,1400,87.3882296085358
"00:00:18.768",71,86.6932144165039,97,0,NA,1401,87.8528246879578
"00:00:18.784",71,86.5345230102539,97,0,NA,1402,87.9032962322235
"00:00:18.796",71,86.0584411621094,97,0,NA,1403,87.6314182281494
"00:00:18.808",71,85.3650741577148,97,0,NA,1404,87.1273775100708
"00:00:18.824",71,84.5618362426758,97,0,NA,1405,86.4917981624603
"00:00:18.836",71,83.7195358276367,97,0,NA,1406,85.7920551300049
"00:00:18.848",71,82.8992156982422,97,0,NA,1407,85.087970495224
"00:00:18.864",71,82.1252746582031,97,0,NA,1408,84.404629945755
"00:00:18.876",71,81.4148178100586,97,0,NA,1409,83.7605879306793
"00:00:18.888",71,80.7800445556641,97,0,NA,1410,83.1700277328492
"00:00:18.904",71,80.235595703125,97,0,NA,1411,82.6499552726746
"00:00:18.916",71,79.796142578125,97,0,NA,1412,82.2178645133972
"00:00:18.928",71,79.4811935424805,97,0,NA,1413,81.8965449333191
"00:00:18.944",71,79.2907638549805,97,0,NA,1414,81.6899025440216
"00:00:18.956",71,79.2297210693359,97,0,NA,1415,81.6066961288452
"00:00:18.968",71,79.2809982299805,97,0,NA,1416,81.6339020729065
"00:00:18.984",71,79.4152755737305,97,0,NA,1417,81.7457106113434
"00:00:18.996",71,79.5886154174805,97,0,NA,1418,81.9007778167725
"00:00:19.008",71,79.771728515625,97,0,NA,1419,82.0710351467133
"00:00:19.024",71,79.927978515625,97,0,NA,1420,82.2201516628265
"00:00:19.036",71,80.023193359375,97,0,NA,1421,82.3131158351898
"00:00:19.048",71,80.040283203125,97,0,NA,1422,82.3309304714203
"00:00:19.064",71,79.974365234375,97,0,NA,1423,82.2662713527679
"00:00:19.076",71,79.840087890625,97,0,NA,1424,82.1311929225922
"00:00:19.088",71,79.6472091674805,97,0,NA,1425,81.9333169460297
"00:00:19.104",71,79.4128341674805,97,0,NA,1426,81.6879172325135
"00:00:19.116",71,79.1613616943359,97,0,NA,1427,81.4180958271026
"00:00:19.128",71,78.9025726318359,97,0,NA,1428,81.1330993175506
"00:00:19.144",71,78.6608657836914,97,0,NA,1429,80.857097864151
"00:00:19.156",71,78.4533462524414,97,0,NA,1430,80.6077303886414
"00:00:19.168",71,78.2824478149414,97,0,NA,1431,80.3884990215302
"00:00:19.184",71,78.1554870605469,97,0,NA,1432,80.2078647613526
"00:00:19.196",71,78.0724792480469,97,0,NA,1433,80.0672159194947
"00:00:19.208",71,78.0236511230469,97,0,NA,1434,79.9581527709961
"00:00:19.224",71,77.9894714355469,97,0,NA,1435,79.8622121810913
"00:00:19.236",71,77.9674987792969,97,0,NA,1436,79.7774105072022
"00:00:19.248",71,77.9504089355469,97,0,NA,1437,79.6968050003052
"00:00:19.264",71,77.9382019042969,97,0,NA,1438,79.620548248291
"00:00:19.276",71,77.9259948730469,97,0,NA,1439,79.5439100265503
"00:00:19.288",71,77.9162292480469,97,0,NA,1440,79.469331741333
"00:00:19.304",71,77.9015808105469,97,0,NA,1441,79.3895654678345
"00:00:19.316",71,77.8820495605469,97,0,NA,1442,79.3044586181641
"00:00:19.328",71,77.8625183105469,97,0,NA,1443,79.2187414169312
"00:00:19.344",71,77.8381042480469,97,0,NA,1444,79.1275310516358
"00:00:19.356",71,77.8161315917969,97,0,NA,1445,79.0379991531372
"00:00:19.368",71,77.7990417480469,97,0,NA,1446,78.9526634216309
"00:00:19.384",71,77.7868347167969,97,0,NA,1447,78.8716764450074
"00:00:19.396",71,77.7770690917969,97,0,NA,1448,78.7927494049073
"00:00:19.408",71,77.7697448730469,97,0,NA,1449,78.7159585952759
"00:00:19.424",71,77.7966003417969,97,0,NA,1450,78.6731185913086
"00:00:19.436",71,77.9113464355469,97,0,NA,1451,78.7190084457398
"00:00:19.448",71,78.1921081542969,97,0,NA,1452,78.9344997406006
"00:00:19.464",71,78.7145767211914,97,0,NA,1453,79.4004716873169
"00:00:19.476",71,79.5226974487305,97,0,NA,1454,80.1684229373932
"00:00:19.488",71,80.5896072387695,97,0,NA,1455,81.220417022705
"00:00:19.504",71,81.8225402832031,97,0,NA,1456,82.4717752933502
"00:00:19.516",71,83.0749969482422,97,0,NA,1457,83.7811863422394
"00:00:19.528",71,84.1858520507813,97,0,NA,1458,84.9881350994111
"00:00:19.544",71,85.0330352783203,97,0,NA,1459,85.966126203537
"00:00:19.556",71,85.5408554077148,97,0,NA,1460,86.631228685379
"00:00:19.568",71,85.7019882202148,97,0,NA,1461,86.9655132293701
"00:00:19.584",71,85.5628280639648,97,0,NA,1462,87.0045402050018
"00:00:19.596",71,85.1941680908203,97,0,NA,1463,86.8097186088562
"00:00:19.608",71,84.6765823364258,97,0,NA,1464,86.4544506072998
"00:00:19.624",71,84.0711059570313,97,0,NA,1465,85.9951174259186
"00:00:19.636",71,83.4338912963867,97,0,NA,1466,85.4851248264313
"00:00:19.648",71,82.7991180419922,97,0,NA,1467,84.9576606750488
"00:00:19.664",71,82.1838684082031,97,0,NA,1468,84.429883480072
"00:00:19.676",71,81.6052474975586,97,0,NA,1469,83.9195084571838
"00:00:19.688",71,81.0901031494141,97,0,NA,1470,83.4545280933381
"00:00:19.704",71,80.6555252075195,97,0,NA,1471,83.0540158748626
"00:00:19.716",71,80.3161697387695,97,0,NA,1472,82.7351455688476
"00:00:19.728",71,80.086669921875,97,0,NA,1473,82.5155260562897
"00:00:19.744",71,79.971923828125,97,0,NA,1474,82.4034883975983
"00:00:19.756",71,79.959716796875,97,0,NA,1475,82.3904039859772
"00:00:19.768",71,80.028076171875,97,0,NA,1476,82.4575045108795
"00:00:19.784",71,80.137939453125,97,0,NA,1477,82.5682451725006
"00:00:19.796",71,80.2551345825195,97,0,NA,1478,82.6897509098053
"00:00:19.808",71,80.3527908325195,97,0,NA,1479,82.795380115509
"00:00:19.824",71,80.4016189575195,97,0,NA,1480,82.8552329540252
"00:00:19.836",71,80.3894119262695,97,0,NA,1481,82.8555765151977
"00:00:19.848",71,80.3088455200195,97,0,NA,1482,82.7871792316436
"00:00:19.864",72,80.162353515625,97,0,NA,1483,82.6503386497498
"00:00:19.876",72,79.954833984375,97,0,NA,1484,82.447892665863
"00:00:19.888",72,79.6960372924805,97,0,NA,1485,82.1876845359803
"00:00:19.904",72,79.4030685424805,97,0,NA,1486,81.8852169513703
"00:00:19.916",72,79.0954437255859,97,0,NA,1487,81.5589380264282
"00:00:19.928",72,78.7927093505859,97,0,NA,1488,81.2279362678527
"00:00:19.944",72,78.5046157836914,97,0,NA,1489,80.9021148681641
"00:00:19.956",72,78.2433776855469,97,0,NA,1490,80.5941460132599
"00:00:19.968",72,78.0138854980469,97,0,NA,1491,80.3097593784333
"00:00:19.984",72,77.8136901855469,97,0,NA,1492,80.0474979877472
"00:00:19.996",72,77.6379013061523,97,0,NA,1493,79.803386926651
"00:00:20.008",72,77.4816513061523,97,0,NA,1494,79.5733213424682
"00:00:20.024",72,77.3376083374023,97,0,NA,1495,79.3505799770355
"00:00:20.036",72,77.2082061767578,97,0,NA,1496,79.1379780769348
"00:00:20.048",72,77.0885772705078,97,0,NA,1497,78.9311056137085
"00:00:20.064",72,76.9884796142578,97,0,NA,1498,78.7400259971619
"00:00:20.076",72,76.9030303955078,97,0,NA,1499,78.5604667663574
"00:00:20.088",72,76.8419952392578,97,0,NA,1500,78.402651309967
"00:00:20.104",72,76.8004913330078,97,0,NA,1501,78.2624597549438
"00:00:20.116",72,76.7760772705078,97,0,NA,1502,78.1380610466003
"00:00:20.128",72,76.7687530517578,97,0,NA,1503,78.0299892425537
"00:00:20.144",72,76.7809600830078,97,0,NA,1504,77.9412198066711
"00:00:20.156",72,76.7980499267578,97,0,NA,1505,77.8577146530151
"00:00:20.168",72,76.8200225830078,97,0,NA,1506,77.7796263694763
"00:00:20.184",72,76.8468780517578,97,0,NA,1507,77.7071075439453
"00:00:20.196",72,76.9054718017578,97,0,NA,1508,77.6671662330627
"00:00:20.208",72,77.0641632080078,97,0,NA,1509,77.7291536331177
"00:00:20.224",72,77.4206161499023,97,0,NA,1510,77.9938616752624
"00:00:20.236",72,78.0700378417969,97,0,NA,1511,78.5626776218415
"00:00:20.248",72,79.0637054443359,97,0,NA,1512,79.4960339069366
"00:00:20.264",72,80.3674392700195,97,0,NA,1513,80.7705085277557
"00:00:20.276",72,81.8689270019531,97,0,NA,1514,82.2834787368774
"00:00:20.288",72,83.4021530151367,97,0,NA,1515,83.8751087188721
"00:00:20.304",72,84.7864532470703,97,0,NA,1516,85.3657262325287
"00:00:20.316",72,85.8753356933594,97,0,NA,1517,86.6041853427887
"00:00:20.328",72,86.6004409790039,97,0,NA,1518,87.5128948688507
"00:00:20.344",72,86.9495697021484,97,0,NA,1519,88.0682873725891
"00:00:20.356",72,86.9593353271484,97,0,NA,1520,88.2952270507812
"00:00:20.368",72,86.7078628540039,97,0,NA,1521,88.2612338066101
"00:00:20.384",72,86.2830581665039,97,0,NA,1522,88.0460498332977
"00:00:20.396",72,85.7605895996094,97,0,NA,1523,87.7199268341065
"00:00:20.408",72,85.1966094970703,97,0,NA,1524,87.3359651565552
"00:00:20.424",72,84.6204299926758,97,0,NA,1525,86.9221796989441
"00:00:20.436",72,84.0442504882813,97,0,NA,1526,86.4903886318207
"00:00:20.448",72,83.4583053588867,97,0,NA,1527,86.0308263301849
"00:00:20.464",72,82.8723602294922,97,0,NA,1528,85.5529532432556
"00:00:20.476",72,82.3035049438477,97,0,NA,1529,85.0738592147828
"00:00:20.488",72,81.7737121582031,97,0,NA,1530,84.6160509586334
"00:00:20.504",72,81.3122787475586,97,0,NA,1531,84.2100460529327
"00:00:20.516",72,80.9509429931641,97,0,NA,1532,83.8897190093995
"00:00:20.528",73,80.6994705200195,97,0,NA,1533,83.6679635047912
"00:00:20.544",73,80.5529861450195,97,0,NA,1534,83.5433375835418
"00:00:20.556",73,80.5017166137695,97,0,NA,1535,83.5093488693237
"00:00:20.568",73,80.5236892700195,97,0,NA,1536,83.547000169754
"00:00:20.584",73,80.5798416137695,97,0,NA,1537,83.6195178031921
"00:00:20.596",73,80.6384353637695,97,0,NA,1538,83.6962316036224
"00:00:20.608",73,80.6726150512695,97,0,NA,1539,83.7503623962402
"00:00:20.624",73,80.6530838012695,97,0,NA,1540,83.7518503665924
"00:00:20.636",73,80.5578689575195,97,0,NA,1541,83.6770443916321
"00:00:20.648",73,80.3942947387695,97,0,NA,1542,83.5309035778045
"00:00:20.664",73,80.167236328125,97,0,NA,1543,83.3161668777466
"00:00:20.676",73,79.888916015625,97,0,NA,1544,83.0430727005005
"00:00:20.688",73,79.5764083862305,97,0,NA,1545,82.7270936965943
"00:00:20.704",73,79.2517013549805,97,0,NA,1546,82.389149427414
"00:00:20.716",73,78.9294281005859,97,0,NA,1547,82.0434918403625
"00:00:20.728",73,78.6315689086914,97,0,NA,1548,81.7121772766113
"00:00:20.744",73,78.3678970336914,97,0,NA,1549,81.4057419300079
"00:00:20.756",73,78.1408386230469,97,0,NA,1550,81.1276803016663
"00:00:20.768",73,77.9552917480469,97,0,NA,1551,80.8840346336365
"00:00:20.784",73,77.8014831542969,97,0,NA,1552,80.666328907013
"00:00:20.796",73,77.6794052124023,97,0,NA,1553,80.4755473136901
"00:00:20.808",73,77.5744247436523,97,0,NA,1554,80.2980482578277
"00:00:20.824",73,77.4914169311523,97,0,NA,1555,80.1392412185669
"00:00:20.836",73,77.4279403686523,97,0,NA,1556,79.9973714351654
"00:00:20.848",73,77.3839950561523,97,0,NA,1557,79.8730492591857
"00:00:20.864",73,77.3498153686523,97,0,NA,1558,79.7571194171905
"00:00:20.876",73,77.3156356811523,97,0,NA,1559,79.6401214599609
"00:00:20.888",73,77.2692489624023,97,0,NA,1560,79.5098483562469
"00:00:20.904",73,77.2082061767578,97,0,NA,1561,79.3634696006775
"00:00:20.916",73,77.1349639892578,97,0,NA,1562,79.2029838562012
"00:00:20.928",73,77.0592803955078,97,0,NA,1563,79.0377678871155
"00:00:20.944",73,77.0275421142578,97,0,NA,1564,78.9141321182251
"00:00:20.956",73,77.1129913330078,97,0,NA,1565,78.9066920280456
"00:00:20.968",73,77.4230575561523,97,0,NA,1566,79.1265392303466
"00:00:20.984",73,78.0407409667969,97,0,NA,1567,79.663693189621
"00:00:20.996",73,79.0026702880859,97,0,NA,1568,80.5643956661224
"00:00:21.008",73,80.2722244262695,97,0,NA,1569,81.8027832508087
"00:00:21.024",73,81.7322006225586,97,0,NA,1570,83.2712664604187
"00:00:21.036",73,83.2019500732422,97,0,NA,1571,84.7951471805573
"00:00:21.048",73,84.5032424926758,97,0,NA,1572,86.1965005397797
"00:00:21.064",73,85.5091171264648,97,0,NA,1573,87.3431015014648
"00:00:21.076",73,86.1536560058594,97,0,NA,1574,88.1598002910614
"00:00:21.088",73,86.4344253540039,97,0,NA,1575,88.632871389389
"00:00:21.104",73,86.4002456665039,97,0,NA,1576,88.7997674942017
"00:00:21.116",73,86.1194763183594,97,0,NA,1577,88.7190058231354
"00:00:21.128",73,85.6775741577148,97,0,NA,1578,88.4683372974395
"00:00:21.144",73,85.1428985595703,97,0,NA,1579,88.1110858917236
"00:00:21.156",73,84.5764846801758,97,0,NA,1580,87.7053875923157
"00:00:21.168",73,84.0125122070313,97,0,NA,1581,87.2844302654267
"00:00:21.184",73,83.4656295776367,97,0,NA,1582,86.8629386425018
"00:00:21.196",73,82.9382781982422,97,0,NA,1583,86.4438881874085
"00:00:21.208",73,82.4304580688477,97,0,NA,1584,86.027889251709
"00:00:21.224",73,81.9494934082031,97,0,NA,1585,85.6228764057159
"00:00:21.236",73,81.5124740600586,97,0,NA,1586,85.2467787265778
"00:00:21.248",73,81.1438140869141,97,0,NA,1587,84.9253835678101
"00:00:21.264",73,80.8728179931641,97,0,NA,1588,84.6901316642762
"00:00:21.276",73,80.7092361450195,97,0,NA,1589,84.5538253784179
"00:00:21.288",73,80.6482009887695,97,0,NA,1590,84.5149538516998
"00:00:21.304",73,80.6750564575195,97,0,NA,1591,84.5620656013488
"00:00:21.316",73,80.7629547119141,97,0,NA,1592,84.6710593700409
"00:00:21.328",73,80.8752593994141,97,0,NA,1593,84.8072063922883
"00:00:21.344",73,80.9826812744141,97,0,NA,1594,84.9419801235199
"00:00:21.356",73,81.0510406494141,97,0,NA,1595,85.0410482883454
"00:00:21.368",73,81.0632476806641,97,0,NA,1596,85.0861003398896
"00:00:21.384",73,80.9973297119141,97,0,NA,1597,85.0534088611603
"00:00:21.396",73,80.8630523681641,97,0,NA,1598,84.9502980709076
"00:00:21.408",73,80.6652908325195,97,0,NA,1599,84.7795069217682
"00:00:21.424",73,80.4211502075195,97,0,NA,1600,84.5561566352844
"00:00:21.436",73,80.142822265625,97,0,NA,1601,84.2909896373749
"00:00:21.448",73,79.844970703125,97,0,NA,1602,83.9976012706757
"00:00:21.464",73,79.5349044799805,97,0,NA,1603,83.6826903820038
"00:00:21.476",73,79.2248382568359,97,0,NA,1604,83.3580899238586
"00:00:21.488",73,78.9269866943359,97,0,NA,1605,83.0360145568847
"00:00:21.504",73,78.6535415649414,97,0,NA,1606,82.7290377616882
"00:00:21.516",73,78.4142837524414,97,0,NA,1607,82.4477031230927
"00:00:21.528",73,78.2043151855469,97,0,NA,1608,82.1881809234619
"00:00:21.544",73,78.0212097167969,97,0,NA,1609,81.9489603042603
"00:00:21.556",73,77.8625183105469,97,0,NA,1610,81.7284317016602
"00:00:21.568",73,77.7306747436523,97,0,NA,1611,81.5297918319702
"00:00:21.584",73,77.6183700561523,97,0,NA,1612,81.3465707302093
"00:00:21.596",73,77.5207138061523,97,0,NA,1613,81.1744885444641
"00:00:21.608",73,77.4328231811523,97,0,NA,1614,81.0091202259063
"00:00:21.624",73,77.3522567749023,97,0,NA,1615,80.8483295440673
"00:00:21.636",73,77.2741317749023,97,0,NA,1616,80.687462568283
"00:00:21.648",73,77.2033233642578,97,0,NA,1617,80.5314707756042
"00:00:21.664",73,77.1593780517578,97,0,NA,1618,80.4001293182373
"00:00:21.676",73,77.2057647705078,97,0,NA,1619,80.3577466011047
"00:00:21.688",73,77.4132919311523,97,0,NA,1620,80.4779539108276
"00:00:21.704",73,77.8820495605469,97,0,NA,1621,80.8658769130707
"00:00:21.716",73,78.6633071899414,97,0,NA,1622,81.5809485912323
"00:00:21.728",73,79.757080078125,97,0,NA,1623,82.6329498291016
"00:00:21.744",73,81.0778961181641,97,0,NA,1624,83.9461746215821
"00:00:21.756",73,82.4817276000977,97,0,NA,1625,85.3836903572083
"00:00:21.768",73,83.7903442382813,97,0,NA,1626,86.769860982895
"00:00:21.784",73,84.8548126220703,97,0,NA,1627,87.9527776241302
"00:00:21.796",73,85.5750350952148,97,0,NA,1628,88.8247129917144
"00:00:21.808",73,85.9192810058594,97,0,NA,1629,89.3431787490845
"00:00:21.824",73,85.9192810058594,97,0,NA,1629,89.5281562805176
"00:00:21.836",73,85.6385116577148,97,0,NA,1630,89.4323644638061
"00:00:21.848",73,85.1599884033203,97,0,NA,1631,89.1300446987152
"00:00:21.864",73,84.5764846801758,97,0,NA,1632,88.7077906131745
"00:00:21.876",73,83.9783325195313,97,0,NA,1633,88.2526535987855
"00:00:21.888",73,83.4241256713867,97,0,NA,1634,87.8227696418762
"00:00:21.904",73,82.9358367919922,97,0,NA,1635,87.4414846897125
"00:00:21.916",73,82.5134658813477,97,0,NA,1636,87.1108586788178
"00:00:21.928",73,82.1203918457031,97,0,NA,1637,86.7963304519653
"00:00:21.944",73,81.7224349975586,97,0,NA,1638,86.464635848999
"00:00:21.956",73,81.3122787475586,97,0,NA,1639,86.1083056926727
"00:00:21.968",73,80.9094390869141,97,0,NA,1640,85.7464747428894
"00:00:21.984",73,80.5529861450195,97,0,NA,1641,85.4184417724609
"00:00:21.996",73,80.2990798950195,97,0,NA,1642,85.1818163394928
"00:00:22.008",73,80.164794921875,97,0,NA,1643,85.0568776130676
"00:00:22.024",73,80.133056640625,97,0,NA,1644,85.0302891731262
"00:00:22.036",73,80.159912109375,97,0,NA,1645,85.0613026618958
"00:00:22.048",73,80.203857421875,97,0,NA,1646,85.1102452278137
"00:00:22.064",73,80.228271484375,97,0,NA,1647,85.1410298347473
"00:00:22.076",73,80.213623046875,97,0,NA,1648,85.133514881134
"00:00:22.088",73,80.162353515625,97,0,NA,1649,85.0889210700989
"00:00:22.104",73,80.076904296875,97,0,NA,1650,85.0085453987122
"00:00:22.116",73,79.945068359375,97,0,NA,1651,84.8791127204895
"00:00:22.128",73,79.759521484375,97,0,NA,1652,84.69184923172
"00:00:22.144",73,79.5104904174805,97,0,NA,1653,84.4353032112122
"00:00:22.156",73,79.2028656005859,97,0,NA,1654,84.1123812198638
"00:00:22.168",73,78.8488616943359,97,0,NA,1655,83.7334668636322
"00:00:22.184",73,78.4679946899414,97,0,NA,1656,83.3166267871857
"00:00:22.196",74,78.0773620605469,97,0,NA,1657,82.8781189918518
"00:00:22.208",74,77.6964950561523,97,0,NA,1658,82.4371695518493
"00:00:22.224",74,77.3327255249023,97,0,NA,1659,82.0014154911041
"00:00:22.236",74,76.9909210205078,97,0,NA,1660,81.5762586593628
"00:00:22.248",74,76.6759719848633,97,0,NA,1661,81.1672759056091
"00:00:22.264",74,76.4025344848633,97,0,NA,1662,80.7899625301361
"00:00:22.276",74,76.1754760742188,97,0,NA,1663,80.4504833221436
"00:00:22.288",74,76.0094604492188,97,0,NA,1664,80.1649513244629
"00:00:22.304",74,75.9093627929688,97,0,NA,1665,79.940149307251
"00:00:22.316",74,75.8727416992188,97,0,NA,1666,79.7756958007813
"00:00:22.328",74,75.8849487304688,97,0,NA,1667,79.6589260101319
"00:00:22.344",74,75.9288940429688,97,0,NA,1668,79.574275970459
"00:00:22.356",74,75.9850463867188,97,0,NA,1669,79.5032062530518
"00:00:22.368",74,76.0411987304688,97,0,NA,1670,79.4338912963868
"00:00:22.384",74,76.0997924804688,97,0,NA,1671,79.3687725067139
"00:00:22.396",74,76.1510620117188,97,0,NA,1672,79.2981605529786
"00:00:22.408",74,76.1901245117188,97,0,NA,1673,79.2169437408448
"00:00:22.424",74,76.2120971679688,97,0,NA,1674,79.119857788086
"00:00:22.436",74,76.2194213867188,97,0,NA,1675,79.008810043335
"00:00:22.448",74,76.2316284179688,97,0,NA,1676,78.90287399292
"00:00:22.464",74,76.2951126098633,97,0,NA,1677,78.848596572876
"00:00:22.476",74,76.5001907348633,97,0,NA,1678,78.9378969669342
"00:00:22.488",74,76.9469757080078,97,0,NA,1679,79.2753129005432
"00:00:22.504",74,77.7013778686523,97,0,NA,1680,79.9343080520629
"00:00:22.516",74,78.7682952880859,97,0,NA,1681,80.9293935298919
"00:00:22.528",74,80.072021484375,97,0,NA,1682,82.1946289539337
"00:00:22.544",74,81.4782943725586,97,0,NA,1683,83.603152513504
"00:00:22.556",74,82.8113250732422,97,0,NA,1684,84.9823799133301
"00:00:22.568",74,83.9099731445313,97,0,NA,1685,86.168881893158
"00:00:22.584",74,84.6741409301758,97,0,NA,1686,87.0552363395691
"00:00:22.596",74,85.0696563720703,97,0,NA,1687,87.5968186855316
"00:00:22.608",74,85.1209259033203,97,0,NA,1688,87.8065149784088
"00:00:22.624",74,84.8914337158203,97,0,NA,1689,87.7370517253876
"00:00:22.636",74,84.4666213989258,97,0,NA,1690,87.4650967121124
"00:00:22.648",74,83.9319458007813,97,0,NA,1691,87.0700030326844
"00:00:22.664",74,83.3655319213867,97,0,NA,1692,86.6264624595642
"00:00:22.676",74,82.8064422607422,97,0,NA,1693,86.172545671463
"00:00:22.688",74,82.2717666625977,97,0,NA,1694,85.7255713939667
"00:00:22.704",74,81.7688293457031,97,0,NA,1695,85.2936267852783
"00:00:22.716",74,81.3049545288086,97,0,NA,1696,84.885027885437
"00:00:22.728",74,80.8899078369141,97,0,NA,1697,84.5107610225678
"00:00:22.744",74,80.5358963012695,97,0,NA,1698,84.1845591068268
"00:00:22.756",74,80.2771072387695,97,0,NA,1699,83.9425168037414
"00:00:22.768",74,80.140380859375,97,0,NA,1700,83.8144500255585
"00:00:22.784",74,80.123291015625,97,0,NA,1701,83.8017470836639
"00:00:22.796",74,80.211181640625,97,0,NA,1702,83.8934905529022
"00:00:22.808",74,80.3723220825195,97,0,NA,1703,84.0612304210663
"00:00:22.824",74,80.5578689575195,97,0,NA,1704,84.258412361145
"00:00:22.836",74,80.7238845825195,97,0,NA,1705,84.4418613910675
"00:00:22.848",74,80.8361968994141,97,0,NA,1706,84.5767951011658
"00:00:22.864",75,80.8752593994141,97,0,NA,1707,84.6419887542725
"00:00:22.876",75,80.8386383056641,97,0,NA,1708,84.6327195167542
"00:00:22.888",75,80.7287673950195,97,0,NA,1709,84.5490560531616
"00:00:22.904",75,80.5578689575195,97,0,NA,1710,84.400931596756
"00:00:22.916",75,80.3357009887695,97,0,NA,1711,84.1961970329284
"00:00:22.928",75,80.076904296875,97,0,NA,1712,83.947890996933
"00:00:22.944",75,79.803466796875,97,0,NA,1713,83.6768567562103
"00:00:22.956",75,79.5251388549805,97,0,NA,1714,83.3923871517182
"00:00:22.968",75,79.2517013549805,97,0,NA,1715,83.1041102409363
"00:00:22.984",75,78.9929046630859,97,0,NA,1716,82.8219292163848
"00:00:22.996",75,78.7585296630859,97,0,NA,1717,82.5560824871063
"00:00:23.008",75,78.5534439086914,97,0,NA,1718,82.3122007846832
"00:00:23.024",75,78.3825454711914,97,0,NA,1719,82.0960974693298
"00:00:23.036",75,78.2409362792969,97,0,NA,1720,81.9039428234101
"00:00:23.048",75,78.1261901855469,97,0,NA,1721,81.7342259883881
"00:00:23.064",75,78.0285339355469,97,0,NA,1722,81.5780131816864
"00:00:23.076",75,77.9406433105469,97,0,NA,1723,81.4285142421723
"00:00:23.088",75,77.8649597167969,97,0,NA,1724,81.2884757518769
"00:00:23.104",75,77.8039245605469,97,0,NA,1725,81.1607205867768
"00:00:23.116",75,77.7526550292969,97,0,NA,1726,81.0408236980439
"00:00:23.128",75,77.7135848999023,97,0,NA,1727,80.9315240383148
"00:00:23.144",75,77.6794052124023,97,0,NA,1728,80.8258938789367
"00:00:23.156",75,77.6427841186523,97,0,NA,1729,80.7167541980743
"00:00:23.168",75,77.5939559936523,97,0,NA,1730,80.5942630767822
"00:00:23.184",75,77.5378036499023,97,0,NA,1731,80.4629218578338
"00:00:23.196",75,77.4694442749023,97,0,NA,1732,80.3176188468933
"00:00:23.208",75,77.4010848999023,97,0,NA,1733,80.170179605484
"00:00:23.224",75,77.3473739624023,97,0,NA,1734,80.0352525711059
"00:00:23.236",75,77.3522567749023,97,0,NA,1735,79.957240819931
"00:00:23.248",75,77.4816513061523,97,0,NA,1736,80.0038933753967
"00:00:23.264",75,77.8210144042969,97,0,NA,1737,80.2645580768585
"00:00:23.276",75,78.4411392211914,97,0,NA,1738,80.8165895938873
"00:00:23.288",75,79.3615646362305,97,0,NA,1739,81.6883006095887
"00:00:23.304",75,80.5407791137695,97,0,NA,1740,82.8475639820099
"00:00:23.316",75,81.8640441894531,97,0,NA,1741,84.1877284049988
"00:00:23.328",75,83.1750946044922,97,0,NA,1742,85.5570302009583
"00:00:23.344",75,84.3103713989258,97,0,NA,1743,86.7915287017822
"00:00:23.356",75,85.1551055908203,97,0,NA,1744,87.7709619998932
"00:00:23.368",75,85.6409530639648,97,0,NA,1745,88.4179065227508
"00:00:23.384",75,85.7679138183594,97,0,NA,1746,88.7211470603943
"00:00:23.396",75,85.5774765014648,97,0,NA,1747,88.7109570503234
"00:00:23.408",75,85.1477813720703,97,0,NA,1748,88.4555580615997
"00:00:23.424",75,84.5520706176758,97,0,NA,1749,88.0207154750824
"00:00:23.436",75,83.8635864257813,97,0,NA,1750,87.4744834899903
"00:00:23.448",75,83.1287078857422,97,0,NA,1751,86.8603420257569
"00:00:23.464",75,82.3791885375977,97,0,NA,1752,86.2085947990418
"00:00:23.476",75,81.6369857788086,97,0,NA,1753,85.5407416820526
"00:00:23.488",75,80.9240875244141,97,0,NA,1754,84.8789992332459
"00:00:23.504",75,80.2746658325195,97,0,NA,1755,84.2584552764892
"00:00:23.516",75,79.7228927612305,97,0,NA,1756,83.7152655124665
"00:00:23.528",75,79.3029708862305,97,0,NA,1757,83.2866840362549
"00:00:23.544",75,79.0295257568359,97,0,NA,1758,82.991456747055
"00:00:23.556",75,78.9050140380859,97,0,NA,1759,82.8366177082061
"00:00:23.568",75,78.9001312255859,97,0,NA,1760,82.7975165843963
"00:00:23.584",75,78.9782562255859,97,0,NA,1761,82.8412706851959
"00:00:23.596",75,79.1003265380859,97,0,NA,1762,82.9314115047454
"00:00:23.608",75,79.2272796630859,97,0,NA,1763,83.0302498340606
"00:00:23.624",75,79.3176193237305,97,0,NA,1764,83.0964419841767
"00:00:23.636",75,79.3493576049805,97,0,NA,1765,83.1068558692932
"00:00:23.648",75,79.3102951049805,97,0,NA,1766,83.0474607944489
"00:00:23.664",75,79.2004241943359,97,0,NA,1767,82.9160366058349
"00:00:23.676",75,79.0270843505859,97,0,NA,1768,82.7177100181579
"00:00:23.688",75,78.8073577880859,97,0,NA,1769,82.4675798416137
"00:00:23.704",75,78.5656509399414,97,0,NA,1770,82.1886029243469
"00:00:23.716",75,78.3117446899414,97,0,NA,1771,81.8898732662201
"00:00:23.728",75,78.0700378417969,97,0,NA,1772,81.5954084396363
"00:00:23.744",75,77.8405456542969,97,0,NA,1773,81.3056049346924
"00:00:23.756",75,77.6330184936523,97,0,NA,1774,81.0305948257446
"00:00:23.768",75,77.4499130249023,97,0,NA,1775,80.7735211849212
"00:00:23.784",75,77.2961044311523,97,0,NA,1776,80.5400223731994
"00:00:23.796",75,77.1642608642578,97,0,NA,1777,80.3236820697784
"00:00:23.808",75,77.0543975830078,97,0,NA,1778,80.1252019405365
"00:00:23.824",75,76.9713897705078,97,0,NA,1779,79.9501440525055
"00:00:23.836",75,76.9079132080078,97,0,NA,1780,79.7920234203338
"00:00:23.848",75,76.8688507080078,97,0,NA,1781,79.6563332080841
"00:00:23.864",75,76.8419952392578,97,0,NA,1782,79.5316293239593
"00:00:23.876",75,76.8224639892578,97,0,NA,1783,79.4134104251861
"00:00:23.888",75,76.8102569580078,97,0,NA,1784,79.3019053936004
"00:00:23.904",75,76.8029327392578,97,0,NA,1785,79.1949017047882
"00:00:23.916",75,76.8004913330078,97,0,NA,1786,79.09255194664
"00:00:23.928",75,76.8029327392578,97,0,NA,1787,78.9950087070465
"00:00:23.944",75,76.8126983642578,97,0,NA,1788,78.9048659801483
"00:00:23.956",75,76.8249053955078,97,0,NA,1789,78.8174698352814
"00:00:23.968",75,76.8395538330078,97,0,NA,1790,78.732896566391
"00:00:23.984",75,76.8517608642578,97,0,NA,1791,78.6463396549225
"00:00:23.996",75,76.8639678955078,97,0,NA,1792,78.5601642131805
"00:00:24.008",75,76.8883819580078,97,0,NA,1793,78.4865772724151
"00:00:24.024",75,76.9616241455078,97,0,NA,1794,78.4625813961029
"00:00:24.036",75,77.1544952392578,97,0,NA,1795,78.5605032444
"00:00:24.048",75,77.5695419311523,97,0,NA,1796,78.8866279125213
"00:00:24.064",75,78.2995376586914,97,0,NA,1797,79.5406718254089
"00:00:24.076",75,79.3884201049805,97,0,NA,1798,80.5764148235321
"00:00:24.088",75,80.7922515869141,97,0,NA,1799,81.9611344337464
"00:00:24.104",75,82.3865127563477,97,0,NA,1800,83.580153465271
"00:00:24.116",75,83.9734497070313,97,0,NA,1801,85.2416689395905
"00:00:24.128",75,85.3577499389648,97,0,NA,1802,86.7501394748687
"00:00:24.144",75,86.3904800415039,97,0,NA,1803,87.9502992630005
"00:00:24.156",75,87.0008392333984,97,0,NA,1804,88.760360956192
"00:00:24.168",75,87.2010345458984,97,0,NA,1805,89.1793324947357
"00:00:24.184",75,87.0569915771484,97,0,NA,1806,89.260321855545
"00:00:24.196",75,86.6663589477539,97,0,NA,1807,89.0902202129364
"00:00:24.208",75,86.1268005371094,97,0,NA,1808,88.7589855194092
"00:00:24.224",75,85.5359725952148,97,0,NA,1809,88.3596200942993
"00:00:24.236",75,84.9427032470703,97,0,NA,1810,87.9393498897552
"00:00:24.248",75,84.3665237426758,97,0,NA,1811,87.5176298618317
"00:00:24.264",75,83.8001098632813,97,0,NA,1812,87.0876698493958
"00:00:24.276",75,83.2263641357422,97,0,NA,1813,86.6326775550842
"00:00:24.288",75,82.6282119750977,97,0,NA,1814,86.1353492736817
"00:00:24.304",75,82.0032043457031,97,0,NA,1815,85.5924732685089
"00:00:24.316",75,81.3879623413086,97,0,NA,1816,85.0398313999176
"00:00:24.328",75,80.8191070556641,97,0,NA,1817,84.514349937439
"00:00:24.344",75,80.3430252075195,97,0,NA,1818,84.0638651847839
"00:00:24.356",75,79.979248046875,97,0,NA,1819,83.7108075618744
"00:00:24.368",75,79.7350997924805,97,0,NA,1820,83.4660108089447
"00:00:24.384",75,79.5959396362305,97,0,NA,1821,83.3185725212097
"00:00:24.396",75,79.5202560424805,97,0,NA,1822,83.2302620410919
"00:00:24.408",75,79.4714279174805,97,0,NA,1823,83.1664419174195
"00:00:24.424",75,79.4128341674805,97,0,NA,1824,83.0913302898407
"00:00:24.436",75,79.3151779174805,97,0,NA,1825,82.9753251075745
"00:00:24.448",75,79.1686859130859,97,0,NA,1826,82.8074324131012
"00:00:24.464",75,78.9660491943359,97,0,NA,1827,82.5788171291351
"00:00:24.476",75,78.7121353149414,97,0,NA,1828,82.2925922870636
"00:00:24.488",75,78.4216079711914,97,0,NA,1829,81.9618191719055
"00:00:24.504",75,78.1213073730469,97,0,NA,1830,81.6121938228607
"00:00:24.516",75,77.8185729980469,97,0,NA,1831,81.2507503032685
"00:00:24.528",76,77.5329208374023,98,0,NA,1832,80.8969285488128
"00:00:24.544",76,77.2716903686523,98,0,NA,1833,80.5586018562316
"00:00:24.556",76,77.0446319580078,98,0,NA,1834,80.2462837696075
"00:00:24.568",76,76.8468780517578,98,0,NA,1835,79.9561746120453
"00:00:24.584",76,76.6784133911133,98,0,NA,1836,79.6891748905182
"00:00:24.596",76,76.5465774536133,98,0,NA,1837,79.4535393714905
"00:00:24.608",76,76.4440383911133,98,0,NA,1838,79.2430808544159
"00:00:24.624",76,76.3707962036133,98,0,NA,1839,79.0587148666382
"00:00:24.636",76,76.3170852661133,98,0,NA,1840,78.8915913105011
"00:00:24.648",76,76.2755813598633,98,0,NA,1841,78.7349963188172
"00:00:24.664",76,76.2340698242188,98,0,NA,1842,78.5770967006684
"00:00:24.676",76,76.1925659179688,98,0,NA,1843,78.4179074764252
"00:00:24.688",76,76.1559448242188,98,0,NA,1844,78.2623040676118
"00:00:24.704",76,76.1168823242188,98,0,NA,1845,78.1031148433686
"00:00:24.716",76,76.0802612304688,98,0,NA,1846,77.9451463222504
"00:00:24.728",76,76.0509643554688,98,0,NA,1847,77.7933576107026
"00:00:24.744",76,76.0314331054688,98,0,NA,1848,77.650418996811
"00:00:24.756",76,76.0167846679688,98,0,NA,1849,77.5117528438569
"00:00:24.768",76,76.0094604492188,98,0,NA,1850,77.3799531459809
"00:00:24.784",76,76.0045776367188,98,0,NA,1851,77.250365972519
"00:00:24.796",76,75.9948120117188,98,0,NA,1852,77.1157433986664
"00:00:24.808",76,75.9752807617188,98,0,NA,1853,76.9710500240326
"00:00:24.824",76,75.9411010742188,98,0,NA,1854,76.8110978603364
"00:00:24.836",76,75.8947143554688,98,0,NA,1855,76.6378705501557
"00:00:24.848",76,75.8434448242188,98,0,NA,1856,76.4583108425141
"00:00:24.864",76,75.7994995117188,98,0,NA,1857,76.2844731807709
